ID,Section,Text,Time_shift_0,Time_shift_1,Time_shift_2,Time_shift_3,Time_shift_4,Time_shift_5,Time_shift_6,Time_shift_7,Time_shift_8,Time_shift_9,Time_shift_10,Time_shift_11,Time_shift_12,Time_shift_13,Time_shift_14,Time_shift_15,Time_shift_16,Time_shift_17,Time_shift_18,Time_shift_19,Time_shift_20,Time_shift_21,Time_shift_22,Time_shift_23,Time_shift_24,Time_shift_25
0,1,when,0,,,,,,,,,,,,,,,,,,,,,,,,,
1,1,henry,0.15,0,,,,,,,,,,,,,,,,,,,,,,,,
2,1,left,0.42,0.27,0,,,,,,,,,,,,,,,,,,,,,,,
3,1,the,0.76,0.61,0.34,0,,,,,,,,,,,,,,,,,,,,,,
4,1,gym,0.83,0.68,0.41,0.07,0,,,,,,,,,,,,,,,,,,,,,
5,1,on,1.18,1.03,0.76,0.42,0.35,0,,,,,,,,,,,,,,,,,,,,
6,1,this,1.29,1.14,0.87,0.53,0.46,0.11,0,,,,,,,,,,,,,,,,,,,
7,1,particular,1.5,1.35,1.08,0.74,0.67,0.32,0.21,0,,,,,,,,,,,,,,,,,,
8,1,wednesday,2.1,1.95,1.68,1.34,1.27,0.92,0.81,0.6,0,,,,,,,,,,,,,,,,,
9,1,he,3.17,3.02,2.75,2.41,2.34,1.99,1.88,1.67,1.07,0,,,,,,,,,,,,,,,,
10,1,stopped,3.3,3.15,2.88,2.54,2.47,2.12,2.01,1.8,1.2,0.13,0,,,,,,,,,,,,,,,
11,1,to,3.65,3.5,3.23,2.89,2.82,2.47,2.36,2.15,1.55,0.48,0.35,0,,,,,,,,,,,,,,
12,1,watch,3.72,3.57,3.3,2.96,2.89,2.54,2.43,2.22,1.62,0.55,0.42,0.07,0,,,,,,,,,,,,,
13,1,a,4.01,3.86,3.59,3.25,3.18,2.83,2.72,2.51,1.91,0.84,0.71,0.36,0.29,0,,,,,,,,,,,,
14,1,man,4.07,3.92,3.65,3.31,3.24,2.89,2.78,2.57,1.97,0.9,0.77,0.42,0.35,0.06,0,,,,,,,,,,,
15,1,tear,4.49,4.34,4.07,3.73,3.66,3.31,3.2,2.99,2.39,1.32,1.19,0.84,0.77,0.48,0.42,0,,,,,,,,,,
16,1,down,4.79,4.64,4.37,4.03,3.96,3.61,3.5,3.29,2.69,1.62,1.49,1.14,1.07,0.78,0.72,0.3,0,,,,,,,,,
17,1,a,5.09,4.94,4.67,4.33,4.26,3.91,3.8,3.59,2.99,1.92,1.79,1.44,1.37,1.08,1.02,0.6,0.3,0,,,,,,,,
18,1,circus,5.13,4.98,4.71,4.37,4.3,3.95,3.84,3.63,3.03,1.96,1.83,1.48,1.41,1.12,1.06,0.64,0.34,0.04,0,,,,,,,
19,1,poster,5.59,5.44,5.17,4.83,4.76,4.41,4.3,4.09,3.49,2.42,2.29,1.94,1.87,1.58,1.52,1.1,0.8,0.5,0.46,0,,,,,,
20,1,then,6.82,6.67,6.4,6.06,5.99,5.64,5.53,5.32,4.72,3.65,3.52,3.17,3.1,2.81,2.75,2.33,2.03,1.73,1.69,1.23,0,,,,,
21,1,with,7.22,7.07,6.8,6.46,6.39,6.04,5.93,5.72,5.12,4.05,3.92,3.57,3.5,3.21,3.15,2.73,2.43,2.13,2.09,1.63,0.4,0,,,,
22,1,three,7.44,7.29,7.02,6.68,6.61,6.26,6.15,5.94,5.34,4.27,4.14,3.79,3.72,3.43,3.37,2.95,2.65,2.35,2.31,1.85,0.62,0.22,0,,,
23,1,nickels,7.69,7.54,7.27,6.93,6.86,6.51,6.4,6.19,5.59,4.52,4.39,4.04,3.97,3.68,3.62,3.2,2.9,2.6,2.56,2.1,0.87,0.47,0.25,0,,
24,1,and,8.17,8.02,7.75,7.41,7.34,6.99,6.88,6.67,6.07,5,4.87,4.52,4.45,4.16,4.1,3.68,3.38,3.08,3.04,2.58,1.35,0.95,0.73,0.48,0,
25,1,one,8.4,8.25,7.98,7.64,7.57,7.22,7.11,6.9,6.3,5.23,5.1,4.75,4.68,4.39,4.33,3.91,3.61,3.31,3.27,2.81,1.58,1.18,0.96,0.71,0.23,0
26,1,dime,8.66,8.51,8.24,7.9,7.83,7.48,7.37,7.16,6.56,5.49,5.36,5.01,4.94,4.65,4.59,4.17,3.87,3.57,3.53,3.07,1.84,1.44,1.22,0.97,0.49,0.26
27,1,in,8.92,8.77,8.5,8.16,8.09,7.74,7.63,7.42,6.82,5.75,5.62,5.27,5.2,4.91,4.85,4.43,4.13,3.83,3.79,3.33,2.1,1.7,1.48,1.23,0.75,0.52
28,1,his,8.98,8.83,8.56,8.22,8.15,7.8,7.69,7.48,6.88,5.81,5.68,5.33,5.26,4.97,4.91,4.49,4.19,3.89,3.85,3.39,2.16,1.76,1.54,1.29,0.81,0.58
29,1,pocket,9.14,8.99,8.72,8.38,8.31,7.96,7.85,7.64,7.04,5.97,5.84,5.49,5.42,5.13,5.07,4.65,4.35,4.05,4.01,3.55,2.32,1.92,1.7,1.45,0.97,0.74
30,1,he,9.92,9.77,9.5,9.16,9.09,8.74,8.63,8.42,7.82,6.75,6.62,6.27,6.2,5.91,5.85,5.43,5.13,4.83,4.79,4.33,3.1,2.7,2.48,2.23,1.75,1.52
31,1,went,10.08,9.93,9.66,9.32,9.25,8.9,8.79,8.58,7.98,6.91,6.78,6.43,6.36,6.07,6.01,5.59,5.29,4.99,4.95,4.49,3.26,2.86,2.64,2.39,1.91,1.68
32,1,to,10.27,10.12,9.85,9.51,9.44,9.09,8.98,8.77,8.17,7.1,6.97,6.62,6.55,6.26,6.2,5.78,5.48,5.18,5.14,4.68,3.45,3.05,2.83,2.58,2.1,1.87
33,1,the,10.38,10.23,9.96,9.62,9.55,9.2,9.09,8.88,8.28,7.21,7.08,6.73,6.66,6.37,6.31,5.89,5.59,5.29,5.25,4.79,3.56,3.16,2.94,2.69,2.21,1.98
34,1,corner,10.47,10.32,10.05,9.71,9.64,9.29,9.18,8.97,8.37,7.3,7.17,6.82,6.75,6.46,6.4,5.98,5.68,5.38,5.34,4.88,3.65,3.25,3.03,2.78,2.3,2.07
35,1,drugstore,10.81,10.66,10.39,10.05,9.98,9.63,9.52,9.31,8.71,7.64,7.51,7.16,7.09,6.8,6.74,6.32,6.02,5.72,5.68,5.22,3.99,3.59,3.37,3.12,2.64,2.41
36,1,to,11.38,11.23,10.96,10.62,10.55,10.2,10.09,9.88,9.28,8.21,8.08,7.73,7.66,7.37,7.31,6.89,6.59,6.29,6.25,5.79,4.56,4.16,3.94,3.69,3.21,2.98
37,1,buy,11.51,11.36,11.09,10.75,10.68,10.33,10.22,10.01,9.41,8.34,8.21,7.86,7.79,7.5,7.44,7.02,6.72,6.42,6.38,5.92,4.69,4.29,4.07,3.82,3.34,3.11
38,1,a,11.69,11.54,11.27,10.93,10.86,10.51,10.4,10.19,9.59,8.52,8.39,8.04,7.97,7.68,7.62,7.2,6.9,6.6,6.56,6.1,4.87,4.47,4.25,4,3.52,3.29
39,1,chocolate,11.79,11.64,11.37,11.03,10.96,10.61,10.5,10.29,9.69,8.62,8.49,8.14,8.07,7.78,7.72,7.3,7,6.7,6.66,6.2,4.97,4.57,4.35,4.1,3.62,3.39
40,1,ice,12.34,12.19,11.92,11.58,11.51,11.16,11.05,10.84,10.24,9.17,9.04,8.69,8.62,8.33,8.27,7.85,7.55,7.25,7.21,6.75,5.52,5.12,4.9,4.65,4.17,3.94
41,1,cream,12.62,12.47,12.2,11.86,11.79,11.44,11.33,11.12,10.52,9.45,9.32,8.97,8.9,8.61,8.55,8.13,7.83,7.53,7.49,7.03,5.8,5.4,5.18,4.93,4.45,4.22
42,1,cone,12.86,12.71,12.44,12.1,12.03,11.68,11.57,11.36,10.76,9.69,9.56,9.21,9.14,8.85,8.79,8.37,8.07,7.77,7.73,7.27,6.04,5.64,5.42,5.17,4.69,4.46
43,1,he,13.96,13.81,13.54,13.2,13.13,12.78,12.67,12.46,11.86,10.79,10.66,10.31,10.24,9.95,9.89,9.47,9.17,8.87,8.83,8.37,7.14,6.74,6.52,6.27,5.79,5.56
44,1,thought,14.13,13.98,13.71,13.37,13.3,12.95,12.84,12.63,12.03,10.96,10.83,10.48,10.41,10.12,10.06,9.64,9.34,9.04,9,8.54,7.31,6.91,6.69,6.44,5.96,5.73
45,1,he,14.43,14.28,14.01,13.67,13.6,13.25,13.14,12.93,12.33,11.26,11.13,10.78,10.71,10.42,10.36,9.94,9.64,9.34,9.3,8.84,7.61,7.21,6.99,6.74,6.26,6.03
46,1,would,14.55,14.4,14.13,13.79,13.72,13.37,13.26,13.05,12.45,11.38,11.25,10.9,10.83,10.54,10.48,10.06,9.76,9.46,9.42,8.96,7.73,7.33,7.11,6.86,6.38,6.15
47,1,eat,14.69,14.54,14.27,13.93,13.86,13.51,13.4,13.19,12.59,11.52,11.39,11.04,10.97,10.68,10.62,10.2,9.9,9.6,9.56,9.1,7.87,7.47,7.25,7,6.52,6.29
48,1,the,14.89,14.74,14.47,14.13,14.06,13.71,13.6,13.39,12.79,11.72,11.59,11.24,11.17,10.88,10.82,10.4,10.1,9.8,9.76,9.3,8.07,7.67,7.45,7.2,6.72,6.49
49,1,ice,15.02,14.87,14.6,14.26,14.19,13.84,13.73,13.52,12.92,11.85,11.72,11.37,11.3,11.01,10.95,10.53,10.23,9.93,9.89,9.43,8.2,7.8,7.58,7.33,6.85,6.62
50,1,cream,15.3,15.15,14.88,14.54,14.47,14.12,14.01,13.8,13.2,12.13,12,11.65,11.58,11.29,11.23,10.81,10.51,10.21,10.17,9.71,8.48,8.08,7.86,7.61,7.13,6.9
51,1,cone,15.46,15.31,15.04,14.7,14.63,14.28,14.17,13.96,13.36,12.29,12.16,11.81,11.74,11.45,11.39,10.97,10.67,10.37,10.33,9.87,8.64,8.24,8.02,7.77,7.29,7.06
52,1,get,16.31,16.16,15.89,15.55,15.48,15.13,15.02,14.81,14.21,13.14,13.01,12.66,12.59,12.3,12.24,11.82,11.52,11.22,11.18,10.72,9.49,9.09,8.87,8.62,8.14,7.91
53,1,on,16.5,16.35,16.08,15.74,15.67,15.32,15.21,15,14.4,13.33,13.2,12.85,12.78,12.49,12.43,12.01,11.71,11.41,11.37,10.91,9.68,9.28,9.06,8.81,8.33,8.1
54,1,the,16.63,16.48,16.21,15.87,15.8,15.45,15.34,15.13,14.53,13.46,13.33,12.98,12.91,12.62,12.56,12.14,11.84,11.54,11.5,11.04,9.81,9.41,9.19,8.94,8.46,8.23
55,1,bus,16.71,16.56,16.29,15.95,15.88,15.53,15.42,15.21,14.61,13.54,13.41,13.06,12.99,12.7,12.64,12.22,11.92,11.62,11.58,11.12,9.89,9.49,9.27,9.02,8.54,8.31
56,1,drop,17.6,17.45,17.18,16.84,16.77,16.42,16.31,16.1,15.5,14.43,14.3,13.95,13.88,13.59,13.53,13.11,12.81,12.51,12.47,12.01,10.78,10.38,10.16,9.91,9.43,9.2
57,1,his,17.87,17.72,17.45,17.11,17.04,16.69,16.58,16.37,15.77,14.7,14.57,14.22,14.15,13.86,13.8,13.38,13.08,12.78,12.74,12.28,11.05,10.65,10.43,10.18,9.7,9.47
58,1,dime,18.07,17.92,17.65,17.31,17.24,16.89,16.78,16.57,15.97,14.9,14.77,14.42,14.35,14.06,14,13.58,13.28,12.98,12.94,12.48,11.25,10.85,10.63,10.38,9.9,9.67
59,1,in,18.32,18.17,17.9,17.56,17.49,17.14,17.03,16.82,16.22,15.15,15.02,14.67,14.6,14.31,14.25,13.83,13.53,13.23,13.19,12.73,11.5,11.1,10.88,10.63,10.15,9.92
60,1,the,18.42,18.27,18,17.66,17.59,17.24,17.13,16.92,16.32,15.25,15.12,14.77,14.7,14.41,14.35,13.93,13.63,13.33,13.29,12.83,11.6,11.2,10.98,10.73,10.25,10.02
61,1,slot,18.49,18.34,18.07,17.73,17.66,17.31,17.2,16.99,16.39,15.32,15.19,14.84,14.77,14.48,14.42,14,13.7,13.4,13.36,12.9,11.67,11.27,11.05,10.8,10.32,10.09
62,1,and,19.33,19.18,18.91,18.57,18.5,18.15,18.04,17.83,17.23,16.16,16.03,15.68,15.61,15.32,15.26,14.84,14.54,14.24,14.2,13.74,12.51,12.11,11.89,11.64,11.16,10.93
63,1,ride,19.45,19.3,19.03,18.69,18.62,18.27,18.16,17.95,17.35,16.28,16.15,15.8,15.73,15.44,15.38,14.96,14.66,14.36,14.32,13.86,12.63,12.23,12.01,11.76,11.28,11.05
64,1,home,19.64,19.49,19.22,18.88,18.81,18.46,18.35,18.14,17.54,16.47,16.34,15.99,15.92,15.63,15.57,15.15,14.85,14.55,14.51,14.05,12.82,12.42,12.2,11.95,11.47,11.24
65,1,that,21.42,21.27,21,20.66,20.59,20.24,20.13,19.92,19.32,18.25,18.12,17.77,17.7,17.41,17.35,16.93,16.63,16.33,16.29,15.83,14.6,14.2,13.98,13.73,13.25,13.02
66,1,is,22.01,21.86,21.59,21.25,21.18,20.83,20.72,20.51,19.91,18.84,18.71,18.36,18.29,18,17.94,17.52,17.22,16.92,16.88,16.42,15.19,14.79,14.57,14.32,13.84,13.61
67,1,not,22.24,22.09,21.82,21.48,21.41,21.06,20.95,20.74,20.14,19.07,18.94,18.59,18.52,18.23,18.17,17.75,17.45,17.15,17.11,16.65,15.42,15.02,14.8,14.55,14.07,13.84
68,1,what,22.87,22.72,22.45,22.11,22.04,21.69,21.58,21.37,20.77,19.7,19.57,19.22,19.15,18.86,18.8,18.38,18.08,17.78,17.74,17.28,16.05,15.65,15.43,15.18,14.7,14.47
69,1,happened,23.03,22.88,22.61,22.27,22.2,21.85,21.74,21.53,20.93,19.86,19.73,19.38,19.31,19.02,18.96,18.54,18.24,17.94,17.9,17.44,16.21,15.81,15.59,15.34,14.86,14.63
70,1,he,24.81,24.66,24.39,24.05,23.98,23.63,23.52,23.31,22.71,21.64,21.51,21.16,21.09,20.8,20.74,20.32,20.02,19.72,19.68,19.22,17.99,17.59,17.37,17.12,16.64,16.41
71,1,bought,25.08,24.93,24.66,24.32,24.25,23.9,23.79,23.58,22.98,21.91,21.78,21.43,21.36,21.07,21.01,20.59,20.29,19.99,19.95,19.49,18.26,17.86,17.64,17.39,16.91,16.68
72,1,the,25.34,25.19,24.92,24.58,24.51,24.16,24.05,23.84,23.24,22.17,22.04,21.69,21.62,21.33,21.27,20.85,20.55,20.25,20.21,19.75,18.52,18.12,17.9,17.65,17.17,16.94
73,1,ice,25.48,25.33,25.06,24.72,24.65,24.3,24.19,23.98,23.38,22.31,22.18,21.83,21.76,21.47,21.41,20.99,20.69,20.39,20.35,19.89,18.66,18.26,18.04,17.79,17.31,17.08
74,1,cream,25.78,25.63,25.36,25.02,24.95,24.6,24.49,24.28,23.68,22.61,22.48,22.13,22.06,21.77,21.71,21.29,20.99,20.69,20.65,20.19,18.96,18.56,18.34,18.09,17.61,17.38
75,1,cone,25.97,25.82,25.55,25.21,25.14,24.79,24.68,24.47,23.87,22.8,22.67,22.32,22.25,21.96,21.9,21.48,21.18,20.88,20.84,20.38,19.15,18.75,18.53,18.28,17.8,17.57
76,1,and,26.24,26.09,25.82,25.48,25.41,25.06,24.95,24.74,24.14,23.07,22.94,22.59,22.52,22.23,22.17,21.75,21.45,21.15,21.11,20.65,19.42,19.02,18.8,18.55,18.07,17.84
77,1,paid,26.37,26.22,25.95,25.61,25.54,25.19,25.08,24.87,24.27,23.2,23.07,22.72,22.65,22.36,22.3,21.88,21.58,21.28,21.24,20.78,19.55,19.15,18.93,18.68,18.2,17.97
78,1,for,26.62,26.47,26.2,25.86,25.79,25.44,25.33,25.12,24.52,23.45,23.32,22.97,22.9,22.61,22.55,22.13,21.83,21.53,21.49,21.03,19.8,19.4,19.18,18.93,18.45,18.22
79,1,it,26.85,26.7,26.43,26.09,26.02,25.67,25.56,25.35,24.75,23.68,23.55,23.2,23.13,22.84,22.78,22.36,22.06,21.76,21.72,21.26,20.03,19.63,19.41,19.16,18.68,18.45
80,1,with,27.02,26.87,26.6,26.26,26.19,25.84,25.73,25.52,24.92,23.85,23.72,23.37,23.3,23.01,22.95,22.53,22.23,21.93,21.89,21.43,20.2,19.8,19.58,19.33,18.85,18.62
81,1,one,27.18,27.03,26.76,26.42,26.35,26,25.89,25.68,25.08,24.01,23.88,23.53,23.46,23.17,23.11,22.69,22.39,22.09,22.05,21.59,20.36,19.96,19.74,19.49,19.01,18.78
82,1,of,27.37,27.22,26.95,26.61,26.54,26.19,26.08,25.87,25.27,24.2,24.07,23.72,23.65,23.36,23.3,22.88,22.58,22.28,22.24,21.78,20.55,20.15,19.93,19.68,19.2,18.97
83,1,his,27.46,27.31,27.04,26.7,26.63,26.28,26.17,25.96,25.36,24.29,24.16,23.81,23.74,23.45,23.39,22.97,22.67,22.37,22.33,21.87,20.64,20.24,20.02,19.77,19.29,19.06
84,1,nickels,27.65,27.5,27.23,26.89,26.82,26.47,26.36,26.15,25.55,24.48,24.35,24,23.93,23.64,23.58,23.16,22.86,22.56,22.52,22.06,20.83,20.43,20.21,19.96,19.48,19.25
85,1,on,28.81,28.66,28.39,28.05,27.98,27.63,27.52,27.31,26.71,25.64,25.51,25.16,25.09,24.8,24.74,24.32,24.02,23.72,23.68,23.22,21.99,21.59,21.37,21.12,20.64,20.41
86,1,his,29.01,28.86,28.59,28.25,28.18,27.83,27.72,27.51,26.91,25.84,25.71,25.36,25.29,25,24.94,24.52,24.22,23.92,23.88,23.42,22.19,21.79,21.57,21.32,20.84,20.61
87,1,way,29.21,29.06,28.79,28.45,28.38,28.03,27.92,27.71,27.11,26.04,25.91,25.56,25.49,25.2,25.14,24.72,24.42,24.12,24.08,23.62,22.39,21.99,21.77,21.52,21.04,20.81
88,1,out,29.42,29.27,29,28.66,28.59,28.24,28.13,27.92,27.32,26.25,26.12,25.77,25.7,25.41,25.35,24.93,24.63,24.33,24.29,23.83,22.6,22.2,21.98,21.73,21.25,21.02
89,1,of,29.58,29.43,29.16,28.82,28.75,28.4,28.29,28.08,27.48,26.41,26.28,25.93,25.86,25.57,25.51,25.09,24.79,24.49,24.45,23.99,22.76,22.36,22.14,21.89,21.41,21.18
90,1,the,29.69,29.54,29.27,28.93,28.86,28.51,28.4,28.19,27.59,26.52,26.39,26.04,25.97,25.68,25.62,25.2,24.9,24.6,24.56,24.1,22.87,22.47,22.25,22,21.52,21.29
91,1,drugstore,29.76,29.61,29.34,29,28.93,28.58,28.47,28.26,27.66,26.59,26.46,26.11,26.04,25.75,25.69,25.27,24.97,24.67,24.63,24.17,22.94,22.54,22.32,22.07,21.59,21.36
92,1,he,30.72,30.57,30.3,29.96,29.89,29.54,29.43,29.22,28.62,27.55,27.42,27.07,27,26.71,26.65,26.23,25.93,25.63,25.59,25.13,23.9,23.5,23.28,23.03,22.55,22.32
93,1,stopped,30.9,30.75,30.48,30.14,30.07,29.72,29.61,29.4,28.8,27.73,27.6,27.25,27.18,26.89,26.83,26.41,26.11,25.81,25.77,25.31,24.08,23.68,23.46,23.21,22.73,22.5
94,1,to,31.6,31.45,31.18,30.84,30.77,30.42,30.31,30.1,29.5,28.43,28.3,27.95,27.88,27.59,27.53,27.11,26.81,26.51,26.47,26.01,24.78,24.38,24.16,23.91,23.43,23.2
95,1,look,31.73,31.58,31.31,30.97,30.9,30.55,30.44,30.23,29.63,28.56,28.43,28.08,28.01,27.72,27.66,27.24,26.94,26.64,26.6,26.14,24.91,24.51,24.29,24.04,23.56,23.33
96,1,at,31.97,31.82,31.55,31.21,31.14,30.79,30.68,30.47,29.87,28.8,28.67,28.32,28.25,27.96,27.9,27.48,27.18,26.88,26.84,26.38,25.15,24.75,24.53,24.28,23.8,23.57
97,1,funny,32.06,31.91,31.64,31.3,31.23,30.88,30.77,30.56,29.96,28.89,28.76,28.41,28.34,28.05,27.99,27.57,27.27,26.97,26.93,26.47,25.24,24.84,24.62,24.37,23.89,23.66
98,1,books,32.41,32.26,31.99,31.65,31.58,31.23,31.12,30.91,30.31,29.24,29.11,28.76,28.69,28.4,28.34,27.92,27.62,27.32,27.28,26.82,25.59,25.19,24.97,24.72,24.24,24.01
99,1,it,33.54,33.39,33.12,32.78,32.71,32.36,32.25,32.04,31.44,30.37,30.24,29.89,29.82,29.53,29.47,29.05,28.75,28.45,28.41,27.95,26.72,26.32,26.1,25.85,25.37,25.14
100,1,was,33.69,33.54,33.27,32.93,32.86,32.51,32.4,32.19,31.59,30.52,30.39,30.04,29.97,29.68,29.62,29.2,28.9,28.6,28.56,28.1,26.87,26.47,26.25,26,25.52,25.29
101,1,a,33.85,33.7,33.43,33.09,33.02,32.67,32.56,32.35,31.75,30.68,30.55,30.2,30.13,29.84,29.78,29.36,29.06,28.76,28.72,28.26,27.03,26.63,26.41,26.16,25.68,25.45
102,1,free,33.9,33.75,33.48,33.14,33.07,32.72,32.61,32.4,31.8,30.73,30.6,30.25,30.18,29.89,29.83,29.41,29.11,28.81,28.77,28.31,27.08,26.68,26.46,26.21,25.73,25.5
103,1,look,34.24,34.09,33.82,33.48,33.41,33.06,32.95,32.74,32.14,31.07,30.94,30.59,30.52,30.23,30.17,29.75,29.45,29.15,29.11,28.65,27.42,27.02,26.8,26.55,26.07,25.84
104,1,because,34.92,34.77,34.5,34.16,34.09,33.74,33.63,33.42,32.82,31.75,31.62,31.27,31.2,30.91,30.85,30.43,30.13,29.83,29.79,29.33,28.1,27.7,27.48,27.23,26.75,26.52
105,1,he,35.2,35.05,34.78,34.44,34.37,34.02,33.91,33.7,33.1,32.03,31.9,31.55,31.48,31.19,31.13,30.71,30.41,30.11,30.07,29.61,28.38,27.98,27.76,27.51,27.03,26.8
106,1,had,35.27,35.12,34.85,34.51,34.44,34.09,33.98,33.77,33.17,32.1,31.97,31.62,31.55,31.26,31.2,30.78,30.48,30.18,30.14,29.68,28.45,28.05,27.83,27.58,27.1,26.87
107,1,only,35.36,35.21,34.94,34.6,34.53,34.18,34.07,33.86,33.26,32.19,32.06,31.71,31.64,31.35,31.29,30.87,30.57,30.27,30.23,29.77,28.54,28.14,27.92,27.67,27.19,26.96
108,1,two,35.89,35.74,35.47,35.13,35.06,34.71,34.6,34.39,33.79,32.72,32.59,32.24,32.17,31.88,31.82,31.4,31.1,30.8,30.76,30.3,29.07,28.67,28.45,28.2,27.72,27.49
109,1,nickels,36.06,35.91,35.64,35.3,35.23,34.88,34.77,34.56,33.96,32.89,32.76,32.41,32.34,32.05,31.99,31.57,31.27,30.97,30.93,30.47,29.24,28.84,28.62,28.37,27.89,27.66
110,1,left,36.41,36.26,35.99,35.65,35.58,35.23,35.12,34.91,34.31,33.24,33.11,32.76,32.69,32.4,32.34,31.92,31.62,31.32,31.28,30.82,29.59,29.19,28.97,28.72,28.24,28.01
111,1,he,37.87,37.72,37.45,37.11,37.04,36.69,36.58,36.37,35.77,34.7,34.57,34.22,34.15,33.86,33.8,33.38,33.08,32.78,32.74,32.28,31.05,30.65,30.43,30.18,29.7,29.47
112,1,stood,38.04,37.89,37.62,37.28,37.21,36.86,36.75,36.54,35.94,34.87,34.74,34.39,34.32,34.03,33.97,33.55,33.25,32.95,32.91,32.45,31.22,30.82,30.6,30.35,29.87,29.64
113,1,there,38.44,38.29,38.02,37.68,37.61,37.26,37.15,36.94,36.34,35.27,35.14,34.79,34.72,34.43,34.37,33.95,33.65,33.35,33.31,32.85,31.62,31.22,31,30.75,30.27,30.04
114,1,licking,38.82,38.67,38.4,38.06,37.99,37.64,37.53,37.32,36.72,35.65,35.52,35.17,35.1,34.81,34.75,34.33,34.03,33.73,33.69,33.23,32,31.6,31.38,31.13,30.65,30.42
115,1,his,39.31,39.16,38.89,38.55,38.48,38.13,38.02,37.81,37.21,36.14,36.01,35.66,35.59,35.3,35.24,34.82,34.52,34.22,34.18,33.72,32.49,32.09,31.87,31.62,31.14,30.91
116,1,chocolate,39.56,39.41,39.14,38.8,38.73,38.38,38.27,38.06,37.46,36.39,36.26,35.91,35.84,35.55,35.49,35.07,34.77,34.47,34.43,33.97,32.74,32.34,32.12,31.87,31.39,31.16
117,1,ice,40.02,39.87,39.6,39.26,39.19,38.84,38.73,38.52,37.92,36.85,36.72,36.37,36.3,36.01,35.95,35.53,35.23,34.93,34.89,34.43,33.2,32.8,32.58,32.33,31.85,31.62
118,1,cream,40.25,40.1,39.83,39.49,39.42,39.07,38.96,38.75,38.15,37.08,36.95,36.6,36.53,36.24,36.18,35.76,35.46,35.16,35.12,34.66,33.43,33.03,32.81,32.56,32.08,31.85
119,1,cone,40.49,40.34,40.07,39.73,39.66,39.31,39.2,38.99,38.39,37.32,37.19,36.84,36.77,36.48,36.42,36,35.7,35.4,35.36,34.9,33.67,33.27,33.05,32.8,32.32,32.09
120,1,and,40.84,40.69,40.42,40.08,40.01,39.66,39.55,39.34,38.74,37.67,37.54,37.19,37.12,36.83,36.77,36.35,36.05,35.75,35.71,35.25,34.02,33.62,33.4,33.15,32.67,32.44
121,1,reading,40.98,40.83,40.56,40.22,40.15,39.8,39.69,39.48,38.88,37.81,37.68,37.33,37.26,36.97,36.91,36.49,36.19,35.89,35.85,35.39,34.16,33.76,33.54,33.29,32.81,32.58
122,1,one,41.5,41.35,41.08,40.74,40.67,40.32,40.21,40,39.4,38.33,38.2,37.85,37.78,37.49,37.43,37.01,36.71,36.41,36.37,35.91,34.68,34.28,34.06,33.81,33.33,33.1
123,1,of,41.67,41.52,41.25,40.91,40.84,40.49,40.38,40.17,39.57,38.5,38.37,38.02,37.95,37.66,37.6,37.18,36.88,36.58,36.54,36.08,34.85,34.45,34.23,33.98,33.5,33.27
124,1,the,41.77,41.62,41.35,41.01,40.94,40.59,40.48,40.27,39.67,38.6,38.47,38.12,38.05,37.76,37.7,37.28,36.98,36.68,36.64,36.18,34.95,34.55,34.33,34.08,33.6,33.37
125,1,funny,41.85,41.7,41.43,41.09,41.02,40.67,40.56,40.35,39.75,38.68,38.55,38.2,38.13,37.84,37.78,37.36,37.06,36.76,36.72,36.26,35.03,34.63,34.41,34.16,33.68,33.45
126,1,books,42.19,42.04,41.77,41.43,41.36,41.01,40.9,40.69,40.09,39.02,38.89,38.54,38.47,38.18,38.12,37.7,37.4,37.1,37.06,36.6,35.37,34.97,34.75,34.5,34.02,33.79
127,1,when,43.22,43.07,42.8,42.46,42.39,42.04,41.93,41.72,41.12,40.05,39.92,39.57,39.5,39.21,39.15,38.73,38.43,38.13,38.09,37.63,36.4,36,35.78,35.53,35.05,34.82
128,1,he,43.37,43.22,42.95,42.61,42.54,42.19,42.08,41.87,41.27,40.2,40.07,39.72,39.65,39.36,39.3,38.88,38.58,38.28,38.24,37.78,36.55,36.15,35.93,35.68,35.2,34.97
129,1,heard,43.53,43.38,43.11,42.77,42.7,42.35,42.24,42.03,41.43,40.36,40.23,39.88,39.81,39.52,39.46,39.04,38.74,38.44,38.4,37.94,36.71,36.31,36.09,35.84,35.36,35.13
130,1,a,43.86,43.71,43.44,43.1,43.03,42.68,42.57,42.36,41.76,40.69,40.56,40.21,40.14,39.85,39.79,39.37,39.07,38.77,38.73,38.27,37.04,36.64,36.42,36.17,35.69,35.46
131,1,thump,44.33,44.18,43.91,43.57,43.5,43.15,43.04,42.83,42.23,41.16,41.03,40.68,40.61,40.32,40.26,39.84,39.54,39.24,39.2,38.74,37.51,37.11,36.89,36.64,36.16,35.93
132,1,thump,44.89,44.74,44.47,44.13,44.06,43.71,43.6,43.39,42.79,41.72,41.59,41.24,41.17,40.88,40.82,40.4,40.1,39.8,39.76,39.3,38.07,37.67,37.45,37.2,36.72,36.49
133,1,thump,45.49,45.34,45.07,44.73,44.66,44.31,44.2,43.99,43.39,42.32,42.19,41.84,41.77,41.48,41.42,41,40.7,40.4,40.36,39.9,38.67,38.27,38.05,37.8,37.32,37.09
134,1,henry,47.03,46.88,46.61,46.27,46.2,45.85,45.74,45.53,44.93,43.86,43.73,43.38,43.31,43.02,42.96,42.54,42.24,41.94,41.9,41.44,40.21,39.81,39.59,39.34,38.86,38.63
135,1,turned,47.35,47.2,46.93,46.59,46.52,46.17,46.06,45.85,45.25,44.18,44.05,43.7,43.63,43.34,43.28,42.86,42.56,42.26,42.22,41.76,40.53,40.13,39.91,39.66,39.18,38.95
136,1,and,48.82,48.67,48.4,48.06,47.99,47.64,47.53,47.32,46.72,45.65,45.52,45.17,45.1,44.81,44.75,44.33,44.03,43.73,43.69,43.23,42,41.6,41.38,41.13,40.65,40.42
137,1,there,49,48.85,48.58,48.24,48.17,47.82,47.71,47.5,46.9,45.83,45.7,45.35,45.28,44.99,44.93,44.51,44.21,43.91,43.87,43.41,42.18,41.78,41.56,41.31,40.83,40.6
138,1,behind,49.31,49.16,48.89,48.55,48.48,48.13,48.02,47.81,47.21,46.14,46.01,45.66,45.59,45.3,45.24,44.82,44.52,44.22,44.18,43.72,42.49,42.09,41.87,41.62,41.14,40.91
139,1,him,49.79,49.64,49.37,49.03,48.96,48.61,48.5,48.29,47.69,46.62,46.49,46.14,46.07,45.78,45.72,45.3,45,44.7,44.66,44.2,42.97,42.57,42.35,42.1,41.62,41.39
140,1,was,50.54,50.39,50.12,49.78,49.71,49.36,49.25,49.04,48.44,47.37,47.24,46.89,46.82,46.53,46.47,46.05,45.75,45.45,45.41,44.95,43.72,43.32,43.1,42.85,42.37,42.14
141,1,a,50.73,50.58,50.31,49.97,49.9,49.55,49.44,49.23,48.63,47.56,47.43,47.08,47.01,46.72,46.66,46.24,45.94,45.64,45.6,45.14,43.91,43.51,43.29,43.04,42.56,42.33
142,1,dog,50.79,50.64,50.37,50.03,49.96,49.61,49.5,49.29,48.69,47.62,47.49,47.14,47.07,46.78,46.72,46.3,46,45.7,45.66,45.2,43.97,43.57,43.35,43.1,42.62,42.39
143,1,the,52.43,52.28,52.01,51.67,51.6,51.25,51.14,50.93,50.33,49.26,49.13,48.78,48.71,48.42,48.36,47.94,47.64,47.34,47.3,46.84,45.61,45.21,44.99,44.74,44.26,44.03
144,1,dog,52.52,52.37,52.1,51.76,51.69,51.34,51.23,51.02,50.42,49.35,49.22,48.87,48.8,48.51,48.45,48.03,47.73,47.43,47.39,46.93,45.7,45.3,45.08,44.83,44.35,44.12
145,1,was,52.96,52.81,52.54,52.2,52.13,51.78,51.67,51.46,50.86,49.79,49.66,49.31,49.24,48.95,48.89,48.47,48.17,47.87,47.83,47.37,46.14,45.74,45.52,45.27,44.79,44.56
146,1,scratching,53.22,53.07,52.8,52.46,52.39,52.04,51.93,51.72,51.12,50.05,49.92,49.57,49.5,49.21,49.15,48.73,48.43,48.13,48.09,47.63,46.4,46,45.78,45.53,45.05,44.82
147,1,himself,53.74,53.59,53.32,52.98,52.91,52.56,52.45,52.24,51.64,50.57,50.44,50.09,50.02,49.73,49.67,49.25,48.95,48.65,48.61,48.15,46.92,46.52,46.3,46.05,45.57,45.34
148,1,he,55.53,55.38,55.11,54.77,54.7,54.35,54.24,54.03,53.43,52.36,52.23,51.88,51.81,51.52,51.46,51.04,50.74,50.44,50.4,49.94,48.71,48.31,48.09,47.84,47.36,47.13
149,1,wasn't,55.66,55.51,55.24,54.9,54.83,54.48,54.37,54.16,53.56,52.49,52.36,52.01,51.94,51.65,51.59,51.17,50.87,50.57,50.53,50.07,48.84,48.44,48.22,47.97,47.49,47.26
150,1,any,56,55.85,55.58,55.24,55.17,54.82,54.71,54.5,53.9,52.83,52.7,52.35,52.28,51.99,51.93,51.51,51.21,50.91,50.87,50.41,49.18,48.78,48.56,48.31,47.83,47.6
151,1,special,56.25,56.1,55.83,55.49,55.42,55.07,54.96,54.75,54.15,53.08,52.95,52.6,52.53,52.24,52.18,51.76,51.46,51.16,51.12,50.66,49.43,49.03,48.81,48.56,48.08,47.85
152,1,kind,56.76,56.61,56.34,56,55.93,55.58,55.47,55.26,54.66,53.59,53.46,53.11,53.04,52.75,52.69,52.27,51.97,51.67,51.63,51.17,49.94,49.54,49.32,49.07,48.59,48.36
153,1,of,57.02,56.87,56.6,56.26,56.19,55.84,55.73,55.52,54.92,53.85,53.72,53.37,53.3,53.01,52.95,52.53,52.23,51.93,51.89,51.43,50.2,49.8,49.58,49.33,48.85,48.62
154,1,dog,57.13,56.98,56.71,56.37,56.3,55.95,55.84,55.63,55.03,53.96,53.83,53.48,53.41,53.12,53.06,52.64,52.34,52.04,52,51.54,50.31,49.91,49.69,49.44,48.96,48.73
155,1,he,58.14,57.99,57.72,57.38,57.31,56.96,56.85,56.64,56.04,54.97,54.84,54.49,54.42,54.13,54.07,53.65,53.35,53.05,53.01,52.55,51.32,50.92,50.7,50.45,49.97,49.74
156,1,was,58.24,58.09,57.82,57.48,57.41,57.06,56.95,56.74,56.14,55.07,54.94,54.59,54.52,54.23,54.17,53.75,53.45,53.15,53.11,52.65,51.42,51.02,50.8,50.55,50.07,49.84
157,1,too,58.41,58.26,57.99,57.65,57.58,57.23,57.12,56.91,56.31,55.24,55.11,54.76,54.69,54.4,54.34,53.92,53.62,53.32,53.28,52.82,51.59,51.19,50.97,50.72,50.24,50.01
158,1,small,58.6,58.45,58.18,57.84,57.77,57.42,57.31,57.1,56.5,55.43,55.3,54.95,54.88,54.59,54.53,54.11,53.81,53.51,53.47,53.01,51.78,51.38,51.16,50.91,50.43,50.2
159,1,to,59.08,58.93,58.66,58.32,58.25,57.9,57.79,57.58,56.98,55.91,55.78,55.43,55.36,55.07,55.01,54.59,54.29,53.99,53.95,53.49,52.26,51.86,51.64,51.39,50.91,50.68
160,1,be,59.19,59.04,58.77,58.43,58.36,58.01,57.9,57.69,57.09,56.02,55.89,55.54,55.47,55.18,55.12,54.7,54.4,54.1,54.06,53.6,52.37,51.97,51.75,51.5,51.02,50.79
161,1,a,59.33,59.18,58.91,58.57,58.5,58.15,58.04,57.83,57.23,56.16,56.03,55.68,55.61,55.32,55.26,54.84,54.54,54.24,54.2,53.74,52.51,52.11,51.89,51.64,51.16,50.93
162,1,big,59.37,59.22,58.95,58.61,58.54,58.19,58.08,57.87,57.27,56.2,56.07,55.72,55.65,55.36,55.3,54.88,54.58,54.28,54.24,53.78,52.55,52.15,51.93,51.68,51.2,50.97
163,1,dog,59.7,59.55,59.28,58.94,58.87,58.52,58.41,58.2,57.6,56.53,56.4,56.05,55.98,55.69,55.63,55.21,54.91,54.61,54.57,54.11,52.88,52.48,52.26,52.01,51.53,51.3
164,1,but,60.1,59.95,59.68,59.34,59.27,58.92,58.81,58.6,58,56.93,56.8,56.45,56.38,56.09,56.03,55.61,55.31,55.01,54.97,54.51,53.28,52.88,52.66,52.41,51.93,51.7
165,1,on,60.5,60.35,60.08,59.74,59.67,59.32,59.21,59,58.4,57.33,57.2,56.85,56.78,56.49,56.43,56.01,55.71,55.41,55.37,54.91,53.68,53.28,53.06,52.81,52.33,52.1
166,1,the,60.67,60.52,60.25,59.91,59.84,59.49,59.38,59.17,58.57,57.5,57.37,57.02,56.95,56.66,56.6,56.18,55.88,55.58,55.54,55.08,53.85,53.45,53.23,52.98,52.5,52.27
167,1,other,60.81,60.66,60.39,60.05,59.98,59.63,59.52,59.31,58.71,57.64,57.51,57.16,57.09,56.8,56.74,56.32,56.02,55.72,55.68,55.22,53.99,53.59,53.37,53.12,52.64,52.41
168,1,hand,61.03,60.88,60.61,60.27,60.2,59.85,59.74,59.53,58.93,57.86,57.73,57.38,57.31,57.02,56.96,56.54,56.24,55.94,55.9,55.44,54.21,53.81,53.59,53.34,52.86,52.63
169,1,he,61.53,61.38,61.11,60.77,60.7,60.35,60.24,60.03,59.43,58.36,58.23,57.88,57.81,57.52,57.46,57.04,56.74,56.44,56.4,55.94,54.71,54.31,54.09,53.84,53.36,53.13
170,1,was,61.71,61.56,61.29,60.95,60.88,60.53,60.42,60.21,59.61,58.54,58.41,58.06,57.99,57.7,57.64,57.22,56.92,56.62,56.58,56.12,54.89,54.49,54.27,54.02,53.54,53.31
171,1,much,61.87,61.72,61.45,61.11,61.04,60.69,60.58,60.37,59.77,58.7,58.57,58.22,58.15,57.86,57.8,57.38,57.08,56.78,56.74,56.28,55.05,54.65,54.43,54.18,53.7,53.47
172,1,too,62.25,62.1,61.83,61.49,61.42,61.07,60.96,60.75,60.15,59.08,58.95,58.6,58.53,58.24,58.18,57.76,57.46,57.16,57.12,56.66,55.43,55.03,54.81,54.56,54.08,53.85
173,1,big,62.45,62.3,62.03,61.69,61.62,61.27,61.16,60.95,60.35,59.28,59.15,58.8,58.73,58.44,58.38,57.96,57.66,57.36,57.32,56.86,55.63,55.23,55.01,54.76,54.28,54.05
174,1,to,63.05,62.9,62.63,62.29,62.22,61.87,61.76,61.55,60.95,59.88,59.75,59.4,59.33,59.04,58.98,58.56,58.26,57.96,57.92,57.46,56.23,55.83,55.61,55.36,54.88,54.65
175,1,be,63.19,63.04,62.77,62.43,62.36,62.01,61.9,61.69,61.09,60.02,59.89,59.54,59.47,59.18,59.12,58.7,58.4,58.1,58.06,57.6,56.37,55.97,55.75,55.5,55.02,54.79
176,1,a,63.35,63.2,62.93,62.59,62.52,62.17,62.06,61.85,61.25,60.18,60.05,59.7,59.63,59.34,59.28,58.86,58.56,58.26,58.22,57.76,56.53,56.13,55.91,55.66,55.18,54.95
177,1,little,63.41,63.26,62.99,62.65,62.58,62.23,62.12,61.91,61.31,60.24,60.11,59.76,59.69,59.4,59.34,58.92,58.62,58.32,58.28,57.82,56.59,56.19,55.97,55.72,55.24,55.01
178,1,dog,63.75,63.6,63.33,62.99,62.92,62.57,62.46,62.25,61.65,60.58,60.45,60.1,60.03,59.74,59.68,59.26,58.96,58.66,58.62,58.16,56.93,56.53,56.31,56.06,55.58,55.35
179,1,he,65.09,64.94,64.67,64.33,64.26,63.91,63.8,63.59,62.99,61.92,61.79,61.44,61.37,61.08,61.02,60.6,60.3,60,59.96,59.5,58.27,57.87,57.65,57.4,56.92,56.69
180,1,wasn't,65.23,65.08,64.81,64.47,64.4,64.05,63.94,63.73,63.13,62.06,61.93,61.58,61.51,61.22,61.16,60.74,60.44,60.14,60.1,59.64,58.41,58.01,57.79,57.54,57.06,56.83
181,1,a,65.62,65.47,65.2,64.86,64.79,64.44,64.33,64.12,63.52,62.45,62.32,61.97,61.9,61.61,61.55,61.13,60.83,60.53,60.49,60.03,58.8,58.4,58.18,57.93,57.45,57.22
182,1,white,65.68,65.53,65.26,64.92,64.85,64.5,64.39,64.18,63.58,62.51,62.38,62.03,61.96,61.67,61.61,61.19,60.89,60.59,60.55,60.09,58.86,58.46,58.24,57.99,57.51,57.28
183,1,dog,66.1,65.95,65.68,65.34,65.27,64.92,64.81,64.6,64,62.93,62.8,62.45,62.38,62.09,62.03,61.61,61.31,61.01,60.97,60.51,59.28,58.88,58.66,58.41,57.93,57.7
184,1,because,66.76,66.61,66.34,66,65.93,65.58,65.47,65.26,64.66,63.59,63.46,63.11,63.04,62.75,62.69,62.27,61.97,61.67,61.63,61.17,59.94,59.54,59.32,59.07,58.59,58.36
185,1,parts,67.04,66.89,66.62,66.28,66.21,65.86,65.75,65.54,64.94,63.87,63.74,63.39,63.32,63.03,62.97,62.55,62.25,61.95,61.91,61.45,60.22,59.82,59.6,59.35,58.87,58.64
186,1,of,67.33,67.18,66.91,66.57,66.5,66.15,66.04,65.83,65.23,64.16,64.03,63.68,63.61,63.32,63.26,62.84,62.54,62.24,62.2,61.74,60.51,60.11,59.89,59.64,59.16,58.93
187,1,him,67.42,67.27,67,66.66,66.59,66.24,66.13,65.92,65.32,64.25,64.12,63.77,63.7,63.41,63.35,62.93,62.63,62.33,62.29,61.83,60.6,60.2,59.98,59.73,59.25,59.02
188,1,were,67.64,67.49,67.22,66.88,66.81,66.46,66.35,66.14,65.54,64.47,64.34,63.99,63.92,63.63,63.57,63.15,62.85,62.55,62.51,62.05,60.82,60.42,60.2,59.95,59.47,59.24
189,1,brown,67.79,67.64,67.37,67.03,66.96,66.61,66.5,66.29,65.69,64.62,64.49,64.14,64.07,63.78,63.72,63.3,63,62.7,62.66,62.2,60.97,60.57,60.35,60.1,59.62,59.39
190,1,and,68.57,68.42,68.15,67.81,67.74,67.39,67.28,67.07,66.47,65.4,65.27,64.92,64.85,64.56,64.5,64.08,63.78,63.48,63.44,62.98,61.75,61.35,61.13,60.88,60.4,60.17
191,1,other,68.69,68.54,68.27,67.93,67.86,67.51,67.4,67.19,66.59,65.52,65.39,65.04,64.97,64.68,64.62,64.2,63.9,63.6,63.56,63.1,61.87,61.47,61.25,61,60.52,60.29
192,1,parts,68.88,68.73,68.46,68.12,68.05,67.7,67.59,67.38,66.78,65.71,65.58,65.23,65.16,64.87,64.81,64.39,64.09,63.79,63.75,63.29,62.06,61.66,61.44,61.19,60.71,60.48
193,1,were,69.25,69.1,68.83,68.49,68.42,68.07,67.96,67.75,67.15,66.08,65.95,65.6,65.53,65.24,65.18,64.76,64.46,64.16,64.12,63.66,62.43,62.03,61.81,61.56,61.08,60.85
194,1,black,69.38,69.23,68.96,68.62,68.55,68.2,68.09,67.88,67.28,66.21,66.08,65.73,65.66,65.37,65.31,64.89,64.59,64.29,64.25,63.79,62.56,62.16,61.94,61.69,61.21,60.98
195,1,and,70.21,70.06,69.79,69.45,69.38,69.03,68.92,68.71,68.11,67.04,66.91,66.56,66.49,66.2,66.14,65.72,65.42,65.12,65.08,64.62,63.39,62.99,62.77,62.52,62.04,61.81
196,1,in,70.44,70.29,70.02,69.68,69.61,69.26,69.15,68.94,68.34,67.27,67.14,66.79,66.72,66.43,66.37,65.95,65.65,65.35,65.31,64.85,63.62,63.22,63,62.75,62.27,62.04
197,1,between,70.65,70.5,70.23,69.89,69.82,69.47,69.36,69.15,68.55,67.48,67.35,67,66.93,66.64,66.58,66.16,65.86,65.56,65.52,65.06,63.83,63.43,63.21,62.96,62.48,62.25
198,1,there,71.42,71.27,71,70.66,70.59,70.24,70.13,69.92,69.32,68.25,68.12,67.77,67.7,67.41,67.35,66.93,66.63,66.33,66.29,65.83,64.6,64.2,63.98,63.73,63.25,63.02
199,1,were,71.66,71.51,71.24,70.9,70.83,70.48,70.37,70.16,69.56,68.49,68.36,68.01,67.94,67.65,67.59,67.17,66.87,66.57,66.53,66.07,64.84,64.44,64.22,63.97,63.49,63.26
200,1,yellowish,71.84,71.69,71.42,71.08,71.01,70.66,70.55,70.34,69.74,68.67,68.54,68.19,68.12,67.83,67.77,67.35,67.05,66.75,66.71,66.25,65.02,64.62,64.4,64.15,63.67,63.44
201,1,patches,72.64,72.49,72.22,71.88,71.81,71.46,71.35,71.14,70.54,69.47,69.34,68.99,68.92,68.63,68.57,68.15,67.85,67.55,67.51,67.05,65.82,65.42,65.2,64.95,64.47,64.24
202,1,his,74.38,74.23,73.96,73.62,73.55,73.2,73.09,72.88,72.28,71.21,71.08,70.73,70.66,70.37,70.31,69.89,69.59,69.29,69.25,68.79,67.56,67.16,66.94,66.69,66.21,65.98
203,1,ears,74.72,74.57,74.3,73.96,73.89,73.54,73.43,73.22,72.62,71.55,71.42,71.07,71,70.71,70.65,70.23,69.93,69.63,69.59,69.13,67.9,67.5,67.28,67.03,66.55,66.32
204,1,stood,75.16,75.01,74.74,74.4,74.33,73.98,73.87,73.66,73.06,71.99,71.86,71.51,71.44,71.15,71.09,70.67,70.37,70.07,70.03,69.57,68.34,67.94,67.72,67.47,66.99,66.76
205,1,up,75.49,75.34,75.07,74.73,74.66,74.31,74.2,73.99,73.39,72.32,72.19,71.84,71.77,71.48,71.42,71,70.7,70.4,70.36,69.9,68.67,68.27,68.05,67.8,67.32,67.09
206,1,and,76.16,76.01,75.74,75.4,75.33,74.98,74.87,74.66,74.06,72.99,72.86,72.51,72.44,72.15,72.09,71.67,71.37,71.07,71.03,70.57,69.34,68.94,68.72,68.47,67.99,67.76
207,1,his,76.32,76.17,75.9,75.56,75.49,75.14,75.03,74.82,74.22,73.15,73.02,72.67,72.6,72.31,72.25,71.83,71.53,71.23,71.19,70.73,69.5,69.1,68.88,68.63,68.15,67.92
208,1,tail,76.66,76.51,76.24,75.9,75.83,75.48,75.37,75.16,74.56,73.49,73.36,73.01,72.94,72.65,72.59,72.17,71.87,71.57,71.53,71.07,69.84,69.44,69.22,68.97,68.49,68.26
209,1,was,77.17,77.02,76.75,76.41,76.34,75.99,75.88,75.67,75.07,74,73.87,73.52,73.45,73.16,73.1,72.68,72.38,72.08,72.04,71.58,70.35,69.95,69.73,69.48,69,68.77
210,1,long,77.37,77.22,76.95,76.61,76.54,76.19,76.08,75.87,75.27,74.2,74.07,73.72,73.65,73.36,73.3,72.88,72.58,72.28,72.24,71.78,70.55,70.15,69.93,69.68,69.2,68.97
211,1,and,77.93,77.78,77.51,77.17,77.1,76.75,76.64,76.43,75.83,74.76,74.63,74.28,74.21,73.92,73.86,73.44,73.14,72.84,72.8,72.34,71.11,70.71,70.49,70.24,69.76,69.53
212,1,thin,78.11,77.96,77.69,77.35,77.28,76.93,76.82,76.61,76.01,74.94,74.81,74.46,74.39,74.1,74.04,73.62,73.32,73.02,72.98,72.52,71.29,70.89,70.67,70.42,69.94,69.71
213,2,the,81.63,81.48,81.21,80.87,80.8,80.45,80.34,80.13,79.53,78.46,78.33,77.98,77.91,77.62,77.56,77.14,76.84,76.54,76.5,76.04,74.81,74.41,74.19,73.94,73.46,73.23
214,2,dog,81.74,81.59,81.32,80.98,80.91,80.56,80.45,80.24,79.64,78.57,78.44,78.09,78.02,77.73,77.67,77.25,76.95,76.65,76.61,76.15,74.92,74.52,74.3,74.05,73.57,73.34
215,2,was,82.6,82.45,82.18,81.84,81.77,81.42,81.31,81.1,80.5,79.43,79.3,78.95,78.88,78.59,78.53,78.11,77.81,77.51,77.47,77.01,75.78,75.38,75.16,74.91,74.43,74.2
216,2,hungry,82.82,82.67,82.4,82.06,81.99,81.64,81.53,81.32,80.72,79.65,79.52,79.17,79.1,78.81,78.75,78.33,78.03,77.73,77.69,77.23,76,75.6,75.38,75.13,74.65,74.42
217,2,when,84.56,84.41,84.14,83.8,83.73,83.38,83.27,83.06,82.46,81.39,81.26,80.91,80.84,80.55,80.49,80.07,79.77,79.47,79.43,78.97,77.74,77.34,77.12,76.87,76.39,76.16
218,2,henry,84.75,84.6,84.33,83.99,83.92,83.57,83.46,83.25,82.65,81.58,81.45,81.1,81.03,80.74,80.68,80.26,79.96,79.66,79.62,79.16,77.93,77.53,77.31,77.06,76.58,76.35
219,2,licked,85.11,84.96,84.69,84.35,84.28,83.93,83.82,83.61,83.01,81.94,81.81,81.46,81.39,81.1,81.04,80.62,80.32,80.02,79.98,79.52,78.29,77.89,77.67,77.42,76.94,76.71
220,2,he,86.06,85.91,85.64,85.3,85.23,84.88,84.77,84.56,83.96,82.89,82.76,82.41,82.34,82.05,81.99,81.57,81.27,80.97,80.93,80.47,79.24,78.84,78.62,78.37,77.89,77.66
221,2,licked,86.32,86.17,85.9,85.56,85.49,85.14,85.03,84.82,84.22,83.15,83.02,82.67,82.6,82.31,82.25,81.83,81.53,81.23,81.19,80.73,79.5,79.1,78.88,78.63,78.15,77.92
222,2,when,87.46,87.31,87.04,86.7,86.63,86.28,86.17,85.96,85.36,84.29,84.16,83.81,83.74,83.45,83.39,82.97,82.67,82.37,82.33,81.87,80.64,80.24,80.02,79.77,79.29,79.06
223,2,henry,87.67,87.52,87.25,86.91,86.84,86.49,86.38,86.17,85.57,84.5,84.37,84.02,83.95,83.66,83.6,83.18,82.88,82.58,82.54,82.08,80.85,80.45,80.23,79.98,79.5,79.27
224,2,swallowed,88.08,87.93,87.66,87.32,87.25,86.9,86.79,86.58,85.98,84.91,84.78,84.43,84.36,84.07,84.01,83.59,83.29,82.99,82.95,82.49,81.26,80.86,80.64,80.39,79.91,79.68
225,2,he,89.34,89.19,88.92,88.58,88.51,88.16,88.05,87.84,87.24,86.17,86.04,85.69,85.62,85.33,85.27,84.85,84.55,84.25,84.21,83.75,82.52,82.12,81.9,81.65,81.17,80.94
226,2,swallowed,89.57,89.42,89.15,88.81,88.74,88.39,88.28,88.07,87.47,86.4,86.27,85.92,85.85,85.56,85.5,85.08,84.78,84.48,84.44,83.98,82.75,82.35,82.13,81.88,81.4,81.17
227,2,hello,91.1,90.95,90.68,90.34,90.27,89.92,89.81,89.6,89,87.93,87.8,87.45,87.38,87.09,87.03,86.61,86.31,86.01,85.97,85.51,84.28,83.88,83.66,83.41,82.93,82.7
228,2,you,91.47,91.32,91.05,90.71,90.64,90.29,90.18,89.97,89.37,88.3,88.17,87.82,87.75,87.46,87.4,86.98,86.68,86.38,86.34,85.88,84.65,84.25,84.03,83.78,83.3,83.07
229,2,old,91.69,91.54,91.27,90.93,90.86,90.51,90.4,90.19,89.59,88.52,88.39,88.04,87.97,87.68,87.62,87.2,86.9,86.6,86.56,86.1,84.87,84.47,84.25,84,83.52,83.29
230,2,dog,91.9,91.75,91.48,91.14,91.07,90.72,90.61,90.4,89.8,88.73,88.6,88.25,88.18,87.89,87.83,87.41,87.11,86.81,86.77,86.31,85.08,84.68,84.46,84.21,83.73,83.5
231,2,henry,92.75,92.6,92.33,91.99,91.92,91.57,91.46,91.25,90.65,89.58,89.45,89.1,89.03,88.74,88.68,88.26,87.96,87.66,87.62,87.16,85.93,85.53,85.31,85.06,84.58,84.35
232,2,said,93.06,92.91,92.64,92.3,92.23,91.88,91.77,91.56,90.96,89.89,89.76,89.41,89.34,89.05,88.99,88.57,88.27,87.97,87.93,87.47,86.24,85.84,85.62,85.37,84.89,84.66
233,2,you,94.18,94.03,93.76,93.42,93.35,93,92.89,92.68,92.08,91.01,90.88,90.53,90.46,90.17,90.11,89.69,89.39,89.09,89.05,88.59,87.36,86.96,86.74,86.49,86.01,85.78
234,2,can't,94.44,94.29,94.02,93.68,93.61,93.26,93.15,92.94,92.34,91.27,91.14,90.79,90.72,90.43,90.37,89.95,89.65,89.35,89.31,88.85,87.62,87.22,87,86.75,86.27,86.04
235,2,have,94.79,94.64,94.37,94.03,93.96,93.61,93.5,93.29,92.69,91.62,91.49,91.14,91.07,90.78,90.72,90.3,90,89.7,89.66,89.2,87.97,87.57,87.35,87.1,86.62,86.39
236,2,my,95.14,94.99,94.72,94.38,94.31,93.96,93.85,93.64,93.04,91.97,91.84,91.49,91.42,91.13,91.07,90.65,90.35,90.05,90.01,89.55,88.32,87.92,87.7,87.45,86.97,86.74
237,2,ice,95.33,95.18,94.91,94.57,94.5,94.15,94.04,93.83,93.23,92.16,92.03,91.68,91.61,91.32,91.26,90.84,90.54,90.24,90.2,89.74,88.51,88.11,87.89,87.64,87.16,86.93
238,2,cream,95.6,95.45,95.18,94.84,94.77,94.42,94.31,94.1,93.5,92.43,92.3,91.95,91.88,91.59,91.53,91.11,90.81,90.51,90.47,90.01,88.78,88.38,88.16,87.91,87.43,87.2
239,2,cone,95.83,95.68,95.41,95.07,95,94.65,94.54,94.33,93.73,92.66,92.53,92.18,92.11,91.82,91.76,91.34,91.04,90.74,90.7,90.24,89.01,88.61,88.39,88.14,87.66,87.43
240,2,swish,97.23,97.08,96.81,96.47,96.4,96.05,95.94,95.73,95.13,94.06,93.93,93.58,93.51,93.22,93.16,92.74,92.44,92.14,92.1,91.64,90.41,90.01,89.79,89.54,89.06,88.83
241,2,swish,97.66,97.51,97.24,96.9,96.83,96.48,96.37,96.16,95.56,94.49,94.36,94.01,93.94,93.65,93.59,93.17,92.87,92.57,92.53,92.07,90.84,90.44,90.22,89.97,89.49,89.26
242,2,swish,98.09,97.94,97.67,97.33,97.26,96.91,96.8,96.59,95.99,94.92,94.79,94.44,94.37,94.08,94.02,93.6,93.3,93,92.96,92.5,91.27,90.87,90.65,90.4,89.92,89.69
243,2,went,98.69,98.54,98.27,97.93,97.86,97.51,97.4,97.19,96.59,95.52,95.39,95.04,94.97,94.68,94.62,94.2,93.9,93.6,93.56,93.1,91.87,91.47,91.25,91,90.52,90.29
244,2,the,98.93,98.78,98.51,98.17,98.1,97.75,97.64,97.43,96.83,95.76,95.63,95.28,95.21,94.92,94.86,94.44,94.14,93.84,93.8,93.34,92.11,91.71,91.49,91.24,90.76,90.53
245,2,tail,99,98.85,98.58,98.24,98.17,97.82,97.71,97.5,96.9,95.83,95.7,95.35,95.28,94.99,94.93,94.51,94.21,93.91,93.87,93.41,92.18,91.78,91.56,91.31,90.83,90.6
246,2,just,100.61,100.46,100.19,99.85,99.78,99.43,99.32,99.11,98.51,97.44,97.31,96.96,96.89,96.6,96.54,96.12,95.82,95.52,95.48,95.02,93.79,93.39,93.17,92.92,92.44,92.21
247,2,one,101.42,101.27,101,100.66,100.59,100.24,100.13,99.92,99.32,98.25,98.12,97.77,97.7,97.41,97.35,96.93,96.63,96.33,96.29,95.83,94.6,94.2,93.98,93.73,93.25,93.02
248,2,bite,102.35,102.2,101.93,101.59,101.52,101.17,101.06,100.85,100.25,99.18,99.05,98.7,98.63,98.34,98.28,97.86,97.56,97.26,97.22,96.76,95.53,95.13,94.91,94.66,94.18,93.95
249,2,the,102.65,102.5,102.23,101.89,101.82,101.47,101.36,101.15,100.55,99.48,99.35,99,98.93,98.64,98.58,98.16,97.86,97.56,97.52,97.06,95.83,95.43,95.21,94.96,94.48,94.25
250,2,dog's,103.92,103.77,103.5,103.16,103.09,102.74,102.63,102.42,101.82,100.75,100.62,100.27,100.2,99.91,99.85,99.43,99.13,98.83,98.79,98.33,97.1,96.7,96.48,96.23,95.75,95.52
251,2,brown,104.28,104.13,103.86,103.52,103.45,103.1,102.99,102.78,102.18,101.11,100.98,100.63,100.56,100.27,100.21,99.79,99.49,99.19,99.15,98.69,97.46,97.06,96.84,96.59,96.11,95.88
252,2,eyes,104.56,104.41,104.14,103.8,103.73,103.38,103.27,103.06,102.46,101.39,101.26,100.91,100.84,100.55,100.49,100.07,99.77,99.47,99.43,98.97,97.74,97.34,97.12,96.87,96.39,96.16
253,2,seemed,104.83,104.68,104.41,104.07,104,103.65,103.54,103.33,102.73,101.66,101.53,101.18,101.11,100.82,100.76,100.34,100.04,99.74,99.7,99.24,98.01,97.61,97.39,97.14,96.66,96.43
254,2,to,105.15,105,104.73,104.39,104.32,103.97,103.86,103.65,103.05,101.98,101.85,101.5,101.43,101.14,101.08,100.66,100.36,100.06,100.02,99.56,98.33,97.93,97.71,97.46,96.98,96.75
255,2,say,105.24,105.09,104.82,104.48,104.41,104.06,103.95,103.74,103.14,102.07,101.94,101.59,101.52,101.23,101.17,100.75,100.45,100.15,100.11,99.65,98.42,98.02,97.8,97.55,97.07,96.84
256,2,go,106.57,106.42,106.15,105.81,105.74,105.39,105.28,105.07,104.47,103.4,103.27,102.92,102.85,102.56,102.5,102.08,101.78,101.48,101.44,100.98,99.75,99.35,99.13,98.88,98.4,98.17
257,2,away,106.84,106.69,106.42,106.08,106.01,105.66,105.55,105.34,104.74,103.67,103.54,103.19,103.12,102.83,102.77,102.35,102.05,101.75,101.71,101.25,100.02,99.62,99.4,99.15,98.67,98.44
258,2,henry,107.94,107.79,107.52,107.18,107.11,106.76,106.65,106.44,105.84,104.77,104.64,104.29,104.22,103.93,103.87,103.45,103.15,102.85,102.81,102.35,101.12,100.72,100.5,100.25,99.77,99.54
259,2,ordered,108.28,108.13,107.86,107.52,107.45,107.1,106.99,106.78,106.18,105.11,104.98,104.63,104.56,104.27,104.21,103.79,103.49,103.19,103.15,102.69,101.46,101.06,100.84,100.59,100.11,99.88
260,2,he,109.63,109.48,109.21,108.87,108.8,108.45,108.34,108.13,107.53,106.46,106.33,105.98,105.91,105.62,105.56,105.14,104.84,104.54,104.5,104.04,102.81,102.41,102.19,101.94,101.46,101.23
261,2,wasn't,109.78,109.63,109.36,109.02,108.95,108.6,108.49,108.28,107.68,106.61,106.48,106.13,106.06,105.77,105.71,105.29,104.99,104.69,104.65,104.19,102.96,102.56,102.34,102.09,101.61,101.38
262,2,very,110.14,109.99,109.72,109.38,109.31,108.96,108.85,108.64,108.04,106.97,106.84,106.49,106.42,106.13,106.07,105.65,105.35,105.05,105.01,104.55,103.32,102.92,102.7,102.45,101.97,101.74
263,2,firm,110.38,110.23,109.96,109.62,109.55,109.2,109.09,108.88,108.28,107.21,107.08,106.73,106.66,106.37,106.31,105.89,105.59,105.29,105.25,104.79,103.56,103.16,102.94,102.69,102.21,101.98
264,2,about,110.79,110.64,110.37,110.03,109.96,109.61,109.5,109.29,108.69,107.62,107.49,107.14,107.07,106.78,106.72,106.3,106,105.7,105.66,105.2,103.97,103.57,103.35,103.1,102.62,102.39
265,2,it,111.07,110.92,110.65,110.31,110.24,109.89,109.78,109.57,108.97,107.9,107.77,107.42,107.35,107.06,107,106.58,106.28,105.98,105.94,105.48,104.25,103.85,103.63,103.38,102.9,102.67
266,2,he,112.09,111.94,111.67,111.33,111.26,110.91,110.8,110.59,109.99,108.92,108.79,108.44,108.37,108.08,108.02,107.6,107.3,107,106.96,106.5,105.27,104.87,104.65,104.4,103.92,103.69
267,2,patted,112.25,112.1,111.83,111.49,111.42,111.07,110.96,110.75,110.15,109.08,108.95,108.6,108.53,108.24,108.18,107.76,107.46,107.16,107.12,106.66,105.43,105.03,104.81,104.56,104.08,103.85
268,2,the,112.61,112.46,112.19,111.85,111.78,111.43,111.32,111.11,110.51,109.44,109.31,108.96,108.89,108.6,108.54,108.12,107.82,107.52,107.48,107.02,105.79,105.39,105.17,104.92,104.44,104.21
269,2,dog's,112.69,112.54,112.27,111.93,111.86,111.51,111.4,111.19,110.59,109.52,109.39,109.04,108.97,108.68,108.62,108.2,107.9,107.6,107.56,107.1,105.87,105.47,105.25,105,104.52,104.29
270,2,head,113.04,112.89,112.62,112.28,112.21,111.86,111.75,111.54,110.94,109.87,109.74,109.39,109.32,109.03,108.97,108.55,108.25,107.95,107.91,107.45,106.22,105.82,105.6,105.35,104.87,104.64
271,2,the,114.39,114.24,113.97,113.63,113.56,113.21,113.1,112.89,112.29,111.22,111.09,110.74,110.67,110.38,110.32,109.9,109.6,109.3,109.26,108.8,107.57,107.17,106.95,106.7,106.22,105.99
272,2,tail,114.49,114.34,114.07,113.73,113.66,113.31,113.2,112.99,112.39,111.32,111.19,110.84,110.77,110.48,110.42,110,109.7,109.4,109.36,108.9,107.67,107.27,107.05,106.8,106.32,106.09
273,2,wagged,114.91,114.76,114.49,114.15,114.08,113.73,113.62,113.41,112.81,111.74,111.61,111.26,111.19,110.9,110.84,110.42,110.12,109.82,109.78,109.32,108.09,107.69,107.47,107.22,106.74,106.51
274,2,harder,115.21,115.06,114.79,114.45,114.38,114.03,113.92,113.71,113.11,112.04,111.91,111.56,111.49,111.2,111.14,110.72,110.42,110.12,110.08,109.62,108.39,107.99,107.77,107.52,107.04,106.81
275,2,henry,116.77,116.62,116.35,116.01,115.94,115.59,115.48,115.27,114.67,113.6,113.47,113.12,113.05,112.76,112.7,112.28,111.98,111.68,111.64,111.18,109.95,109.55,109.33,109.08,108.6,108.37
276,2,took,117.18,117.03,116.76,116.42,116.35,116,115.89,115.68,115.08,114.01,113.88,113.53,113.46,113.17,113.11,112.69,112.39,112.09,112.05,111.59,110.36,109.96,109.74,109.49,109.01,108.78
277,2,one,117.48,117.33,117.06,116.72,116.65,116.3,116.19,115.98,115.38,114.31,114.18,113.83,113.76,113.47,113.41,112.99,112.69,112.39,112.35,111.89,110.66,110.26,110.04,109.79,109.31,109.08
278,2,last,117.96,117.81,117.54,117.2,117.13,116.78,116.67,116.46,115.86,114.79,114.66,114.31,114.24,113.95,113.89,113.47,113.17,112.87,112.83,112.37,111.14,110.74,110.52,110.27,109.79,109.56
279,2,lick,118.58,118.43,118.16,117.82,117.75,117.4,117.29,117.08,116.48,115.41,115.28,114.93,114.86,114.57,114.51,114.09,113.79,113.49,113.45,112.99,111.76,111.36,111.14,110.89,110.41,110.18
280,2,oh,120.11,119.96,119.69,119.35,119.28,118.93,118.82,118.61,118.01,116.94,116.81,116.46,116.39,116.1,116.04,115.62,115.32,115.02,114.98,114.52,113.29,112.89,112.67,112.42,111.94,111.71
281,2,all,120.62,120.47,120.2,119.86,119.79,119.44,119.33,119.12,118.52,117.45,117.32,116.97,116.9,116.61,116.55,116.13,115.83,115.53,115.49,115.03,113.8,113.4,113.18,112.93,112.45,112.22
282,2,right,121.04,120.89,120.62,120.28,120.21,119.86,119.75,119.54,118.94,117.87,117.74,117.39,117.32,117.03,116.97,116.55,116.25,115.95,115.91,115.45,114.22,113.82,113.6,113.35,112.87,112.64
283,2,he,121.86,121.71,121.44,121.1,121.03,120.68,120.57,120.36,119.76,118.69,118.56,118.21,118.14,117.85,117.79,117.37,117.07,116.77,116.73,116.27,115.04,114.64,114.42,114.17,113.69,113.46
284,2,said,121.99,121.84,121.57,121.23,121.16,120.81,120.7,120.49,119.89,118.82,118.69,118.34,118.27,117.98,117.92,117.5,117.2,116.9,116.86,116.4,115.17,114.77,114.55,114.3,113.82,113.59
285,2,if,123.04,122.89,122.62,122.28,122.21,121.86,121.75,121.54,120.94,119.87,119.74,119.39,119.32,119.03,118.97,118.55,118.25,117.95,117.91,117.45,116.22,115.82,115.6,115.35,114.87,114.64
286,2,you're,123.16,123.01,122.74,122.4,122.33,121.98,121.87,121.66,121.06,119.99,119.86,119.51,119.44,119.15,119.09,118.67,118.37,118.07,118.03,117.57,116.34,115.94,115.72,115.47,114.99,114.76
287,2,that,123.27,123.12,122.85,122.51,122.44,122.09,121.98,121.77,121.17,120.1,119.97,119.62,119.55,119.26,119.2,118.78,118.48,118.18,118.14,117.68,116.45,116.05,115.83,115.58,115.1,114.87
288,2,hungry,123.48,123.33,123.06,122.72,122.65,122.3,122.19,121.98,121.38,120.31,120.18,119.83,119.76,119.47,119.41,118.99,118.69,118.39,118.35,117.89,116.66,116.26,116.04,115.79,115.31,115.08
289,2,you,124.49,124.34,124.07,123.73,123.66,123.31,123.2,122.99,122.39,121.32,121.19,120.84,120.77,120.48,120.42,120,119.7,119.4,119.36,118.9,117.67,117.27,117.05,116.8,116.32,116.09
290,2,might,124.61,124.46,124.19,123.85,123.78,123.43,123.32,123.11,122.51,121.44,121.31,120.96,120.89,120.6,120.54,120.12,119.82,119.52,119.48,119.02,117.79,117.39,117.17,116.92,116.44,116.21
291,2,as,124.86,124.71,124.44,124.1,124.03,123.68,123.57,123.36,122.76,121.69,121.56,121.21,121.14,120.85,120.79,120.37,120.07,119.77,119.73,119.27,118.04,117.64,117.42,117.17,116.69,116.46
292,2,well,124.97,124.82,124.55,124.21,124.14,123.79,123.68,123.47,122.87,121.8,121.67,121.32,121.25,120.96,120.9,120.48,120.18,119.88,119.84,119.38,118.15,117.75,117.53,117.28,116.8,116.57
293,2,have,125.23,125.08,124.81,124.47,124.4,124.05,123.94,123.73,123.13,122.06,121.93,121.58,121.51,121.22,121.16,120.74,120.44,120.14,120.1,119.64,118.41,118.01,117.79,117.54,117.06,116.83
294,2,it,125.49,125.34,125.07,124.73,124.66,124.31,124.2,123.99,123.39,122.32,122.19,121.84,121.77,121.48,121.42,121,120.7,120.4,120.36,119.9,118.67,118.27,118.05,117.8,117.32,117.09
295,2,the,126.85,126.7,126.43,126.09,126.02,125.67,125.56,125.35,124.75,123.68,123.55,123.2,123.13,122.84,122.78,122.36,122.06,121.76,121.72,121.26,120.03,119.63,119.41,119.16,118.68,118.45
296,2,ice,126.97,126.82,126.55,126.21,126.14,125.79,125.68,125.47,124.87,123.8,123.67,123.32,123.25,122.96,122.9,122.48,122.18,121.88,121.84,121.38,120.15,119.75,119.53,119.28,118.8,118.57
297,2,cream,127.23,127.08,126.81,126.47,126.4,126.05,125.94,125.73,125.13,124.06,123.93,123.58,123.51,123.22,123.16,122.74,122.44,122.14,122.1,121.64,120.41,120.01,119.79,119.54,119.06,118.83
298,2,cone,127.49,127.34,127.07,126.73,126.66,126.31,126.2,125.99,125.39,124.32,124.19,123.84,123.77,123.48,123.42,123,122.7,122.4,122.36,121.9,120.67,120.27,120.05,119.8,119.32,119.09
299,2,disappeared,127.87,127.72,127.45,127.11,127.04,126.69,126.58,126.37,125.77,124.7,124.57,124.22,124.15,123.86,123.8,123.38,123.08,122.78,122.74,122.28,121.05,120.65,120.43,120.18,119.7,119.47
300,2,in,128.57,128.42,128.15,127.81,127.74,127.39,127.28,127.07,126.47,125.4,125.27,124.92,124.85,124.56,124.5,124.08,123.78,123.48,123.44,122.98,121.75,121.35,121.13,120.88,120.4,120.17
301,2,one,128.84,128.69,128.42,128.08,128.01,127.66,127.55,127.34,126.74,125.67,125.54,125.19,125.12,124.83,124.77,124.35,124.05,123.75,123.71,123.25,122.02,121.62,121.4,121.15,120.67,120.44
302,2,gulp,129.32,129.17,128.9,128.56,128.49,128.14,128.03,127.82,127.22,126.15,126.02,125.67,125.6,125.31,125.25,124.83,124.53,124.23,124.19,123.73,122.5,122.1,121.88,121.63,121.15,120.92
303,2,now,130.49,130.34,130.07,129.73,129.66,129.31,129.2,128.99,128.39,127.32,127.19,126.84,126.77,126.48,126.42,126,125.7,125.4,125.36,124.9,123.67,123.27,123.05,122.8,122.32,122.09
304,2,go,130.76,130.61,130.34,130,129.93,129.58,129.47,129.26,128.66,127.59,127.46,127.11,127.04,126.75,126.69,126.27,125.97,125.67,125.63,125.17,123.94,123.54,123.32,123.07,122.59,122.36
305,2,away,130.93,130.78,130.51,130.17,130.1,129.75,129.64,129.43,128.83,127.76,127.63,127.28,127.21,126.92,126.86,126.44,126.14,125.84,125.8,125.34,124.11,123.71,123.49,123.24,122.76,122.53
306,2,henry,131.96,131.81,131.54,131.2,131.13,130.78,130.67,130.46,129.86,128.79,128.66,128.31,128.24,127.95,127.89,127.47,127.17,126.87,126.83,126.37,125.14,124.74,124.52,124.27,123.79,123.56
307,2,told,132.27,132.12,131.85,131.51,131.44,131.09,130.98,130.77,130.17,129.1,128.97,128.62,128.55,128.26,128.2,127.78,127.48,127.18,127.14,126.68,125.45,125.05,124.83,124.58,124.1,123.87
308,2,the,132.51,132.36,132.09,131.75,131.68,131.33,131.22,131.01,130.41,129.34,129.21,128.86,128.79,128.5,128.44,128.02,127.72,127.42,127.38,126.92,125.69,125.29,125.07,124.82,124.34,124.11
309,2,dog,132.58,132.43,132.16,131.82,131.75,131.4,131.29,131.08,130.48,129.41,129.28,128.93,128.86,128.57,128.51,128.09,127.79,127.49,127.45,126.99,125.76,125.36,125.14,124.89,124.41,124.18
310,2,i,133.42,133.27,133,132.66,132.59,132.24,132.13,131.92,131.32,130.25,130.12,129.77,129.7,129.41,129.35,128.93,128.63,128.33,128.29,127.83,126.6,126.2,125.98,125.73,125.25,125.02
311,2,have,133.61,133.46,133.19,132.85,132.78,132.43,132.32,132.11,131.51,130.44,130.31,129.96,129.89,129.6,129.54,129.12,128.82,128.52,128.48,128.02,126.79,126.39,126.17,125.92,125.44,125.21
312,2,to,133.75,133.6,133.33,132.99,132.92,132.57,132.46,132.25,131.65,130.58,130.45,130.1,130.03,129.74,129.68,129.26,128.96,128.66,128.62,128.16,126.93,126.53,126.31,126.06,125.58,125.35
313,2,catch,133.82,133.67,133.4,133.06,132.99,132.64,132.53,132.32,131.72,130.65,130.52,130.17,130.1,129.81,129.75,129.33,129.03,128.73,128.69,128.23,127,126.6,126.38,126.13,125.65,125.42
314,2,a,134.05,133.9,133.63,133.29,133.22,132.87,132.76,132.55,131.95,130.88,130.75,130.4,130.33,130.04,129.98,129.56,129.26,128.96,128.92,128.46,127.23,126.83,126.61,126.36,125.88,125.65
315,2,bus,134.11,133.96,133.69,133.35,133.28,132.93,132.82,132.61,132.01,130.94,130.81,130.46,130.39,130.1,130.04,129.62,129.32,129.02,128.98,128.52,127.29,126.89,126.67,126.42,125.94,125.71
316,2,for,134.41,134.26,133.99,133.65,133.58,133.23,133.12,132.91,132.31,131.24,131.11,130.76,130.69,130.4,130.34,129.92,129.62,129.32,129.28,128.82,127.59,127.19,126.97,126.72,126.24,126.01
317,2,home,134.54,134.39,134.12,133.78,133.71,133.36,133.25,133.04,132.44,131.37,131.24,130.89,130.82,130.53,130.47,130.05,129.75,129.45,129.41,128.95,127.72,127.32,127.1,126.85,126.37,126.14
318,2,he,135.99,135.84,135.57,135.23,135.16,134.81,134.7,134.49,133.89,132.82,132.69,132.34,132.27,131.98,131.92,131.5,131.2,130.9,130.86,130.4,129.17,128.77,128.55,128.3,127.82,127.59
319,2,started,136.13,135.98,135.71,135.37,135.3,134.95,134.84,134.63,134.03,132.96,132.83,132.48,132.41,132.12,132.06,131.64,131.34,131.04,131,130.54,129.31,128.91,128.69,128.44,127.96,127.73
320,2,for,136.55,136.4,136.13,135.79,135.72,135.37,135.26,135.05,134.45,133.38,133.25,132.9,132.83,132.54,132.48,132.06,131.76,131.46,131.42,130.96,129.73,129.33,129.11,128.86,128.38,128.15
321,2,the,136.72,136.57,136.3,135.96,135.89,135.54,135.43,135.22,134.62,133.55,133.42,133.07,133,132.71,132.65,132.23,131.93,131.63,131.59,131.13,129.9,129.5,129.28,129.03,128.55,128.32
322,2,door,136.81,136.66,136.39,136.05,135.98,135.63,135.52,135.31,134.71,133.64,133.51,133.16,133.09,132.8,132.74,132.32,132.02,131.72,131.68,131.22,129.99,129.59,129.37,129.12,128.64,128.41
323,2,the,138.2,138.05,137.78,137.44,137.37,137.02,136.91,136.7,136.1,135.03,134.9,134.55,134.48,134.19,134.13,133.71,133.41,133.11,133.07,132.61,131.38,130.98,130.76,130.51,130.03,129.8
324,2,dog,138.31,138.16,137.89,137.55,137.48,137.13,137.02,136.81,136.21,135.14,135.01,134.66,134.59,134.3,134.24,133.82,133.52,133.22,133.18,132.72,131.49,131.09,130.87,130.62,130.14,129.91
325,2,started,138.82,138.67,138.4,138.06,137.99,137.64,137.53,137.32,136.72,135.65,135.52,135.17,135.1,134.81,134.75,134.33,134.03,133.73,133.69,133.23,132,131.6,131.38,131.13,130.65,130.42
326,2,too,139.38,139.23,138.96,138.62,138.55,138.2,138.09,137.88,137.28,136.21,136.08,135.73,135.66,135.37,135.31,134.89,134.59,134.29,134.25,133.79,132.56,132.16,131.94,131.69,131.21,130.98
327,2,go,141.3,141.15,140.88,140.54,140.47,140.12,140.01,139.8,139.2,138.13,138,137.65,137.58,137.29,137.23,136.81,136.51,136.21,136.17,135.71,134.48,134.08,133.86,133.61,133.13,132.9
328,2,away,141.4,141.25,140.98,140.64,140.57,140.22,140.11,139.9,139.3,138.23,138.1,137.75,137.68,137.39,137.33,136.91,136.61,136.31,136.27,135.81,134.58,134.18,133.96,133.71,133.23,133
329,2,you,141.84,141.69,141.42,141.08,141.01,140.66,140.55,140.34,139.74,138.67,138.54,138.19,138.12,137.83,137.77,137.35,137.05,136.75,136.71,136.25,135.02,134.62,134.4,134.15,133.67,133.44
330,2,skinny,142.58,142.43,142.16,141.82,141.75,141.4,141.29,141.08,140.48,139.41,139.28,138.93,138.86,138.57,138.51,138.09,137.79,137.49,137.45,136.99,135.76,135.36,135.14,134.89,134.41,134.18
331,2,old,143.12,142.97,142.7,142.36,142.29,141.94,141.83,141.62,141.02,139.95,139.82,139.47,139.4,139.11,139.05,138.63,138.33,138.03,137.99,137.53,136.3,135.9,135.68,135.43,134.95,134.72
332,2,dog,143.38,143.23,142.96,142.62,142.55,142.2,142.09,141.88,141.28,140.21,140.08,139.73,139.66,139.37,139.31,138.89,138.59,138.29,138.25,137.79,136.56,136.16,135.94,135.69,135.21,134.98
333,2,henry,144.58,144.43,144.16,143.82,143.75,143.4,143.29,143.08,142.48,141.41,141.28,140.93,140.86,140.57,140.51,140.09,139.79,139.49,139.45,138.99,137.76,137.36,137.14,136.89,136.41,136.18
334,2,didn't,144.87,144.72,144.45,144.11,144.04,143.69,143.58,143.37,142.77,141.7,141.57,141.22,141.15,140.86,140.8,140.38,140.08,139.78,139.74,139.28,138.05,137.65,137.43,137.18,136.7,136.47
335,2,say,145.1,144.95,144.68,144.34,144.27,143.92,143.81,143.6,143,141.93,141.8,141.45,141.38,141.09,141.03,140.61,140.31,140.01,139.97,139.51,138.28,137.88,137.66,137.41,136.93,136.7
336,2,it,145.37,145.22,144.95,144.61,144.54,144.19,144.08,143.87,143.27,142.2,142.07,141.72,141.65,141.36,141.3,140.88,140.58,140.28,140.24,139.78,138.55,138.15,137.93,137.68,137.2,136.97
337,2,very,145.46,145.31,145.04,144.7,144.63,144.28,144.17,143.96,143.36,142.29,142.16,141.81,141.74,141.45,141.39,140.97,140.67,140.37,140.33,139.87,138.64,138.24,138.02,137.77,137.29,137.06
338,2,loudly,145.71,145.56,145.29,144.95,144.88,144.53,144.42,144.21,143.61,142.54,142.41,142.06,141.99,141.7,141.64,141.22,140.92,140.62,140.58,140.12,138.89,138.49,138.27,138.02,137.54,137.31
339,2,go,146.64,146.49,146.22,145.88,145.81,145.46,145.35,145.14,144.54,143.47,143.34,142.99,142.92,142.63,142.57,142.15,141.85,141.55,141.51,141.05,139.82,139.42,139.2,138.95,138.47,138.24
340,2,on,147.19,147.04,146.77,146.43,146.36,146.01,145.9,145.69,145.09,144.02,143.89,143.54,143.47,143.18,143.12,142.7,142.4,142.1,142.06,141.6,140.37,139.97,139.75,139.5,139.02,138.79
341,2,home,147.51,147.36,147.09,146.75,146.68,146.33,146.22,146.01,145.41,144.34,144.21,143.86,143.79,143.5,143.44,143.02,142.72,142.42,142.38,141.92,140.69,140.29,140.07,139.82,139.34,139.11
342,2,the,149.35,149.2,148.93,148.59,148.52,148.17,148.06,147.85,147.25,146.18,146.05,145.7,145.63,145.34,145.28,144.86,144.56,144.26,144.22,143.76,142.53,142.13,141.91,141.66,141.18,140.95
343,2,dog,149.44,149.29,149.02,148.68,148.61,148.26,148.15,147.94,147.34,146.27,146.14,145.79,145.72,145.43,145.37,144.95,144.65,144.35,144.31,143.85,142.62,142.22,142,141.75,141.27,141.04
344,2,sat,149.77,149.62,149.35,149.01,148.94,148.59,148.48,148.27,147.67,146.6,146.47,146.12,146.05,145.76,145.7,145.28,144.98,144.68,144.64,144.18,142.95,142.55,142.33,142.08,141.6,141.37
345,2,down,150.14,149.99,149.72,149.38,149.31,148.96,148.85,148.64,148.04,146.97,146.84,146.49,146.42,146.13,146.07,145.65,145.35,145.05,145.01,144.55,143.32,142.92,142.7,142.45,141.97,141.74
346,2,at,150.41,150.26,149.99,149.65,149.58,149.23,149.12,148.91,148.31,147.24,147.11,146.76,146.69,146.4,146.34,145.92,145.62,145.32,145.28,144.82,143.59,143.19,142.97,142.72,142.24,142.01
347,2,henry's,150.49,150.34,150.07,149.73,149.66,149.31,149.2,148.99,148.39,147.32,147.19,146.84,146.77,146.48,146.42,146,145.7,145.4,145.36,144.9,143.67,143.27,143.05,142.8,142.32,142.09
348,2,feet,150.93,150.78,150.51,150.17,150.1,149.75,149.64,149.43,148.83,147.76,147.63,147.28,147.21,146.92,146.86,146.44,146.14,145.84,145.8,145.34,144.11,143.71,143.49,143.24,142.76,142.53
349,2,henry,152.41,152.26,151.99,151.65,151.58,151.23,151.12,150.91,150.31,149.24,149.11,148.76,148.69,148.4,148.34,147.92,147.62,147.32,147.28,146.82,145.59,145.19,144.97,144.72,144.24,144.01
350,2,looked,152.81,152.66,152.39,152.05,151.98,151.63,151.52,151.31,150.71,149.64,149.51,149.16,149.09,148.8,148.74,148.32,148.02,147.72,147.68,147.22,145.99,145.59,145.37,145.12,144.64,144.41
351,2,at,153.07,152.92,152.65,152.31,152.24,151.89,151.78,151.57,150.97,149.9,149.77,149.42,149.35,149.06,149,148.58,148.28,147.98,147.94,147.48,146.25,145.85,145.63,145.38,144.9,144.67
352,2,the,153.16,153.01,152.74,152.4,152.33,151.98,151.87,151.66,151.06,149.99,149.86,149.51,149.44,149.15,149.09,148.67,148.37,148.07,148.03,147.57,146.34,145.94,145.72,145.47,144.99,144.76
353,2,dog,153.23,153.08,152.81,152.47,152.4,152.05,151.94,151.73,151.13,150.06,149.93,149.58,149.51,149.22,149.16,148.74,148.44,148.14,148.1,147.64,146.41,146.01,145.79,145.54,145.06,144.83
354,2,and,154.39,154.24,153.97,153.63,153.56,153.21,153.1,152.89,152.29,151.22,151.09,150.74,150.67,150.38,150.32,149.9,149.6,149.3,149.26,148.8,147.57,147.17,146.95,146.7,146.22,145.99
355,2,the,154.53,154.38,154.11,153.77,153.7,153.35,153.24,153.03,152.43,151.36,151.23,150.88,150.81,150.52,150.46,150.04,149.74,149.44,149.4,148.94,147.71,147.31,147.09,146.84,146.36,146.13
356,2,dog,154.66,154.51,154.24,153.9,153.83,153.48,153.37,153.16,152.56,151.49,151.36,151.01,150.94,150.65,150.59,150.17,149.87,149.57,149.53,149.07,147.84,147.44,147.22,146.97,146.49,146.26
357,2,looked,155.3,155.15,154.88,154.54,154.47,154.12,154.01,153.8,153.2,152.13,152,151.65,151.58,151.29,151.23,150.81,150.51,150.21,150.17,149.71,148.48,148.08,147.86,147.61,147.13,146.9
358,2,at,155.61,155.46,155.19,154.85,154.78,154.43,154.32,154.11,153.51,152.44,152.31,151.96,151.89,151.6,151.54,151.12,150.82,150.52,150.48,150.02,148.79,148.39,148.17,147.92,147.44,147.21
359,2,henry,155.68,155.53,155.26,154.92,154.85,154.5,154.39,154.18,153.58,152.51,152.38,152.03,151.96,151.67,151.61,151.19,150.89,150.59,150.55,150.09,148.86,148.46,148.24,147.99,147.51,147.28
360,2,i,157.26,157.11,156.84,156.5,156.43,156.08,155.97,155.76,155.16,154.09,153.96,153.61,153.54,153.25,153.19,152.77,152.47,152.17,152.13,151.67,150.44,150.04,149.82,149.57,149.09,148.86
361,2,don't,157.45,157.3,157.03,156.69,156.62,156.27,156.16,155.95,155.35,154.28,154.15,153.8,153.73,153.44,153.38,152.96,152.66,152.36,152.32,151.86,150.63,150.23,150.01,149.76,149.28,149.05
362,2,think,157.65,157.5,157.23,156.89,156.82,156.47,156.36,156.15,155.55,154.48,154.35,154,153.93,153.64,153.58,153.16,152.86,152.56,152.52,152.06,150.83,150.43,150.21,149.96,149.48,149.25
363,2,you've,157.88,157.73,157.46,157.12,157.05,156.7,156.59,156.38,155.78,154.71,154.58,154.23,154.16,153.87,153.81,153.39,153.09,152.79,152.75,152.29,151.06,150.66,150.44,150.19,149.71,149.48
364,2,got,158.08,157.93,157.66,157.32,157.25,156.9,156.79,156.58,155.98,154.91,154.78,154.43,154.36,154.07,154.01,153.59,153.29,152.99,152.95,152.49,151.26,150.86,150.64,150.39,149.91,149.68
365,2,a,158.38,158.23,157.96,157.62,157.55,157.2,157.09,156.88,156.28,155.21,155.08,154.73,154.66,154.37,154.31,153.89,153.59,153.29,153.25,152.79,151.56,151.16,150.94,150.69,150.21,149.98
366,2,home,158.47,158.32,158.05,157.71,157.64,157.29,157.18,156.97,156.37,155.3,155.17,154.82,154.75,154.46,154.4,153.98,153.68,153.38,153.34,152.88,151.65,151.25,151.03,150.78,150.3,150.07
367,2,you're,159.83,159.68,159.41,159.07,159,158.65,158.54,158.33,157.73,156.66,156.53,156.18,156.11,155.82,155.76,155.34,155.04,154.74,154.7,154.24,153.01,152.61,152.39,152.14,151.66,151.43
368,2,awful,160.07,159.92,159.65,159.31,159.24,158.89,158.78,158.57,157.97,156.9,156.77,156.42,156.35,156.06,156,155.58,155.28,154.98,154.94,154.48,153.25,152.85,152.63,152.38,151.9,151.67
369,2,thin,160.45,160.3,160.03,159.69,159.62,159.27,159.16,158.95,158.35,157.28,157.15,156.8,156.73,156.44,156.38,155.96,155.66,155.36,155.32,154.86,153.63,153.23,153.01,152.76,152.28,152.05
370,2,your,161.65,161.5,161.23,160.89,160.82,160.47,160.36,160.15,159.55,158.48,158.35,158,157.93,157.64,157.58,157.16,156.86,156.56,156.52,156.06,154.83,154.43,154.21,153.96,153.48,153.25
371,2,ribs,161.86,161.71,161.44,161.1,161.03,160.68,160.57,160.36,159.76,158.69,158.56,158.21,158.14,157.85,157.79,157.37,157.07,156.77,156.73,156.27,155.04,154.64,154.42,154.17,153.69,153.46
372,2,show,162.4,162.25,161.98,161.64,161.57,161.22,161.11,160.9,160.3,159.23,159.1,158.75,158.68,158.39,158.33,157.91,157.61,157.31,157.27,156.81,155.58,155.18,154.96,154.71,154.23,154
373,2,right,162.69,162.54,162.27,161.93,161.86,161.51,161.4,161.19,160.59,159.52,159.39,159.04,158.97,158.68,158.62,158.2,157.9,157.6,157.56,157.1,155.87,155.47,155.25,155,154.52,154.29
374,2,through,162.95,162.8,162.53,162.19,162.12,161.77,161.66,161.45,160.85,159.78,159.65,159.3,159.23,158.94,158.88,158.46,158.16,157.86,157.82,157.36,156.13,155.73,155.51,155.26,154.78,154.55
375,2,your,163.06,162.91,162.64,162.3,162.23,161.88,161.77,161.56,160.96,159.89,159.76,159.41,159.34,159.05,158.99,158.57,158.27,157.97,157.93,157.47,156.24,155.84,155.62,155.37,154.89,154.66
376,2,skin,163.25,163.1,162.83,162.49,162.42,162.07,161.96,161.75,161.15,160.08,159.95,159.6,159.53,159.24,159.18,158.76,158.46,158.16,158.12,157.66,156.43,156.03,155.81,155.56,155.08,154.85
377,2,thump,164.59,164.44,164.17,163.83,163.76,163.41,163.3,163.09,162.49,161.42,161.29,160.94,160.87,160.58,160.52,160.1,159.8,159.5,159.46,159,157.77,157.37,157.15,156.9,156.42,156.19
378,2,thump,164.95,164.8,164.53,164.19,164.12,163.77,163.66,163.45,162.85,161.78,161.65,161.3,161.23,160.94,160.88,160.46,160.16,159.86,159.82,159.36,158.13,157.73,157.51,157.26,156.78,156.55
379,2,thump,165.33,165.18,164.91,164.57,164.5,164.15,164.04,163.83,163.23,162.16,162.03,161.68,161.61,161.32,161.26,160.84,160.54,160.24,160.2,159.74,158.51,158.11,157.89,157.64,157.16,156.93
380,2,replied,165.74,165.59,165.32,164.98,164.91,164.56,164.45,164.24,163.64,162.57,162.44,162.09,162.02,161.73,161.67,161.25,160.95,160.65,160.61,160.15,158.92,158.52,158.3,158.05,157.57,157.34
381,2,the,166.09,165.94,165.67,165.33,165.26,164.91,164.8,164.59,163.99,162.92,162.79,162.44,162.37,162.08,162.02,161.6,161.3,161,160.96,160.5,159.27,158.87,158.65,158.4,157.92,157.69
382,2,tail,166.16,166.01,165.74,165.4,165.33,164.98,164.87,164.66,164.06,162.99,162.86,162.51,162.44,162.15,162.09,161.67,161.37,161.07,161.03,160.57,159.34,158.94,158.72,158.47,157.99,157.76
383,2,and,167.35,167.2,166.93,166.59,166.52,166.17,166.06,165.85,165.25,164.18,164.05,163.7,163.63,163.34,163.28,162.86,162.56,162.26,162.22,161.76,160.53,160.13,159.91,159.66,159.18,158.95
384,2,you,167.56,167.41,167.14,166.8,166.73,166.38,166.27,166.06,165.46,164.39,164.26,163.91,163.84,163.55,163.49,163.07,162.77,162.47,162.43,161.97,160.74,160.34,160.12,159.87,159.39,159.16
385,2,haven't,167.63,167.48,167.21,166.87,166.8,166.45,166.34,166.13,165.53,164.46,164.33,163.98,163.91,163.62,163.56,163.14,162.84,162.54,162.5,162.04,160.81,160.41,160.19,159.94,159.46,159.23
386,2,got,168.04,167.89,167.62,167.28,167.21,166.86,166.75,166.54,165.94,164.87,164.74,164.39,164.32,164.03,163.97,163.55,163.25,162.95,162.91,162.45,161.22,160.82,160.6,160.35,159.87,159.64
387,2,a,168.26,168.11,167.84,167.5,167.43,167.08,166.97,166.76,166.16,165.09,164.96,164.61,164.54,164.25,164.19,163.77,163.47,163.17,163.13,162.67,161.44,161.04,160.82,160.57,160.09,159.86
388,2,collar,168.31,168.16,167.89,167.55,167.48,167.13,167.02,166.81,166.21,165.14,165.01,164.66,164.59,164.3,164.24,163.82,163.52,163.22,163.18,162.72,161.49,161.09,160.87,160.62,160.14,159.91
389,2,said,169.41,169.26,168.99,168.65,168.58,168.23,168.12,167.91,167.31,166.24,166.11,165.76,165.69,165.4,165.34,164.92,164.62,164.32,164.28,163.82,162.59,162.19,161.97,161.72,161.24,161.01
390,2,henry,169.7,169.55,169.28,168.94,168.87,168.52,168.41,168.2,167.6,166.53,166.4,166.05,165.98,165.69,165.63,165.21,164.91,164.61,164.57,164.11,162.88,162.48,162.26,162.01,161.53,161.3
391,3,he,172.4,172.25,171.98,171.64,171.57,171.22,171.11,170.9,170.3,169.23,169.1,168.75,168.68,168.39,168.33,167.91,167.61,167.31,167.27,166.81,165.58,165.18,164.96,164.71,164.23,164
392,3,began,172.65,172.5,172.23,171.89,171.82,171.47,171.36,171.15,170.55,169.48,169.35,169,168.93,168.64,168.58,168.16,167.86,167.56,167.52,167.06,165.83,165.43,165.21,164.96,164.48,164.25
393,3,to,173.73,173.58,173.31,172.97,172.9,172.55,172.44,172.23,171.63,170.56,170.43,170.08,170.01,169.72,169.66,169.24,168.94,168.64,168.6,168.14,166.91,166.51,166.29,166.04,165.56,165.33
394,3,think,173.9,173.75,173.48,173.14,173.07,172.72,172.61,172.4,171.8,170.73,170.6,170.25,170.18,169.89,169.83,169.41,169.11,168.81,168.77,168.31,167.08,166.68,166.46,166.21,165.73,165.5
395,3,if,175.99,175.84,175.57,175.23,175.16,174.81,174.7,174.49,173.89,172.82,172.69,172.34,172.27,171.98,171.92,171.5,171.2,170.9,170.86,170.4,169.17,168.77,168.55,168.3,167.82,167.59
396,3,only,176.42,176.27,176,175.66,175.59,175.24,175.13,174.92,174.32,173.25,173.12,172.77,172.7,172.41,172.35,171.93,171.63,171.33,171.29,170.83,169.6,169.2,168.98,168.73,168.25,168.02
397,3,he,177.23,177.08,176.81,176.47,176.4,176.05,175.94,175.73,175.13,174.06,173.93,173.58,173.51,173.22,173.16,172.74,172.44,172.14,172.1,171.64,170.41,170.01,169.79,169.54,169.06,168.83
398,3,could,177.48,177.33,177.06,176.72,176.65,176.3,176.19,175.98,175.38,174.31,174.18,173.83,173.76,173.47,173.41,172.99,172.69,172.39,172.35,171.89,170.66,170.26,170.04,169.79,169.31,169.08
399,3,keep,177.83,177.68,177.41,177.07,177,176.65,176.54,176.33,175.73,174.66,174.53,174.18,174.11,173.82,173.76,173.34,173.04,172.74,172.7,172.24,171.01,170.61,170.39,170.14,169.66,169.43
400,3,the,178.22,178.07,177.8,177.46,177.39,177.04,176.93,176.72,176.12,175.05,174.92,174.57,174.5,174.21,174.15,173.73,173.43,173.13,173.09,172.63,171.4,171,170.78,170.53,170.05,169.82
401,3,dog,178.44,178.29,178.02,177.68,177.61,177.26,177.15,176.94,176.34,175.27,175.14,174.79,174.72,174.43,174.37,173.95,173.65,173.35,173.31,172.85,171.62,171.22,171,170.75,170.27,170.04
402,3,he,179.88,179.73,179.46,179.12,179.05,178.7,178.59,178.38,177.78,176.71,176.58,176.23,176.16,175.87,175.81,175.39,175.09,174.79,174.75,174.29,173.06,172.66,172.44,172.19,171.71,171.48
403,3,had,180.01,179.86,179.59,179.25,179.18,178.83,178.72,178.51,177.91,176.84,176.71,176.36,176.29,176,175.94,175.52,175.22,174.92,174.88,174.42,173.19,172.79,172.57,172.32,171.84,171.61
404,3,always,180.1,179.95,179.68,179.34,179.27,178.92,178.81,178.6,178,176.93,176.8,176.45,176.38,176.09,176.03,175.61,175.31,175.01,174.97,174.51,173.28,172.88,172.66,172.41,171.93,171.7
405,3,wanted,180.41,180.26,179.99,179.65,179.58,179.23,179.12,178.91,178.31,177.24,177.11,176.76,176.69,176.4,176.34,175.92,175.62,175.32,175.28,174.82,173.59,173.19,172.97,172.72,172.24,172.01
406,3,a,180.77,180.62,180.35,180.01,179.94,179.59,179.48,179.27,178.67,177.6,177.47,177.12,177.05,176.76,176.7,176.28,175.98,175.68,175.64,175.18,173.95,173.55,173.33,173.08,172.6,172.37
407,3,dog,180.82,180.67,180.4,180.06,179.99,179.64,179.53,179.32,178.72,177.65,177.52,177.17,177.1,176.81,176.75,176.33,176.03,175.73,175.69,175.23,174,173.6,173.38,173.13,172.65,172.42
408,3,of,181.11,180.96,180.69,180.35,180.28,179.93,179.82,179.61,179.01,177.94,177.81,177.46,177.39,177.1,177.04,176.62,176.32,176.02,175.98,175.52,174.29,173.89,173.67,173.42,172.94,172.71
409,3,his,181.19,181.04,180.77,180.43,180.36,180.01,179.9,179.69,179.09,178.02,177.89,177.54,177.47,177.18,177.12,176.7,176.4,176.1,176.06,175.6,174.37,173.97,173.75,173.5,173.02,172.79
410,3,very,181.35,181.2,180.93,180.59,180.52,180.17,180.06,179.85,179.25,178.18,178.05,177.7,177.63,177.34,177.28,176.86,176.56,176.26,176.22,175.76,174.53,174.13,173.91,173.66,173.18,172.95
411,3,own,181.66,181.51,181.24,180.9,180.83,180.48,180.37,180.16,179.56,178.49,178.36,178.01,177.94,177.65,177.59,177.17,176.87,176.57,176.53,176.07,174.84,174.44,174.22,173.97,173.49,173.26
412,3,and,182.54,182.39,182.12,181.78,181.71,181.36,181.25,181.04,180.44,179.37,179.24,178.89,178.82,178.53,178.47,178.05,177.75,177.45,177.41,176.95,175.72,175.32,175.1,174.85,174.37,174.14
413,3,now,182.78,182.63,182.36,182.02,181.95,181.6,181.49,181.28,180.68,179.61,179.48,179.13,179.06,178.77,178.71,178.29,177.99,177.69,177.65,177.19,175.96,175.56,175.34,175.09,174.61,174.38
414,3,he,183.08,182.93,182.66,182.32,182.25,181.9,181.79,181.58,180.98,179.91,179.78,179.43,179.36,179.07,179.01,178.59,178.29,177.99,177.95,177.49,176.26,175.86,175.64,175.39,174.91,174.68
415,3,had,183.27,183.12,182.85,182.51,182.44,182.09,181.98,181.77,181.17,180.1,179.97,179.62,179.55,179.26,179.2,178.78,178.48,178.18,178.14,177.68,176.45,176.05,175.83,175.58,175.1,174.87
416,3,found,183.4,183.25,182.98,182.64,182.57,182.22,182.11,181.9,181.3,180.23,180.1,179.75,179.68,179.39,179.33,178.91,178.61,178.31,178.27,177.81,176.58,176.18,175.96,175.71,175.23,175
417,3,a,183.75,183.6,183.33,182.99,182.92,182.57,182.46,182.25,181.65,180.58,180.45,180.1,180.03,179.74,179.68,179.26,178.96,178.66,178.62,178.16,176.93,176.53,176.31,176.06,175.58,175.35
418,3,dog,183.79,183.64,183.37,183.03,182.96,182.61,182.5,182.29,181.69,180.62,180.49,180.14,180.07,179.78,179.72,179.3,179,178.7,178.66,178.2,176.97,176.57,176.35,176.1,175.62,175.39
419,3,that,184.2,184.05,183.78,183.44,183.37,183.02,182.91,182.7,182.1,181.03,180.9,180.55,180.48,180.19,180.13,179.71,179.41,179.11,179.07,178.61,177.38,176.98,176.76,176.51,176.03,175.8
420,3,wanted,184.35,184.2,183.93,183.59,183.52,183.17,183.06,182.85,182.25,181.18,181.05,180.7,180.63,180.34,180.28,179.86,179.56,179.26,179.22,178.76,177.53,177.13,176.91,176.66,176.18,175.95
421,3,him,184.76,184.61,184.34,184,183.93,183.58,183.47,183.26,182.66,181.59,181.46,181.11,181.04,180.75,180.69,180.27,179.97,179.67,179.63,179.17,177.94,177.54,177.32,177.07,176.59,176.36
422,3,he,186.11,185.96,185.69,185.35,185.28,184.93,184.82,184.61,184.01,182.94,182.81,182.46,182.39,182.1,182.04,181.62,181.32,181.02,180.98,180.52,179.29,178.89,178.67,178.42,177.94,177.71
423,3,couldn't,186.3,186.15,185.88,185.54,185.47,185.12,185.01,184.8,184.2,183.13,183,182.65,182.58,182.29,182.23,181.81,181.51,181.21,181.17,180.71,179.48,179.08,178.86,178.61,178.13,177.9
424,3,go,186.62,186.47,186.2,185.86,185.79,185.44,185.33,185.12,184.52,183.45,183.32,182.97,182.9,182.61,182.55,182.13,181.83,181.53,181.49,181.03,179.8,179.4,179.18,178.93,178.45,178.22
425,3,home,186.83,186.68,186.41,186.07,186,185.65,185.54,185.33,184.73,183.66,183.53,183.18,183.11,182.82,182.76,182.34,182.04,181.74,181.7,181.24,180.01,179.61,179.39,179.14,178.66,178.43
426,3,and,187.16,187.01,186.74,186.4,186.33,185.98,185.87,185.66,185.06,183.99,183.86,183.51,183.44,183.15,183.09,182.67,182.37,182.07,182.03,181.57,180.34,179.94,179.72,179.47,178.99,178.76
427,3,leave,187.38,187.23,186.96,186.62,186.55,186.2,186.09,185.88,185.28,184.21,184.08,183.73,183.66,183.37,183.31,182.89,182.59,182.29,182.25,181.79,180.56,180.16,179.94,179.69,179.21,178.98
428,3,a,187.63,187.48,187.21,186.87,186.8,186.45,186.34,186.13,185.53,184.46,184.33,183.98,183.91,183.62,183.56,183.14,182.84,182.54,182.5,182.04,180.81,180.41,180.19,179.94,179.46,179.23
429,3,hungry,187.71,187.56,187.29,186.95,186.88,186.53,186.42,186.21,185.61,184.54,184.41,184.06,183.99,183.7,183.64,183.22,182.92,182.62,182.58,182.12,180.89,180.49,180.27,180.02,179.54,179.31
430,3,dog,188.18,188.03,187.76,187.42,187.35,187,186.89,186.68,186.08,185.01,184.88,184.53,184.46,184.17,184.11,183.69,183.39,183.09,183.05,182.59,181.36,180.96,180.74,180.49,180.01,179.78
431,3,on,188.52,188.37,188.1,187.76,187.69,187.34,187.23,187.02,186.42,185.35,185.22,184.87,184.8,184.51,184.45,184.03,183.73,183.43,183.39,182.93,181.7,181.3,181.08,180.83,180.35,180.12
432,3,the,188.65,188.5,188.23,187.89,187.82,187.47,187.36,187.15,186.55,185.48,185.35,185,184.93,184.64,184.58,184.16,183.86,183.56,183.52,183.06,181.83,181.43,181.21,180.96,180.48,180.25
433,3,street,188.71,188.56,188.29,187.95,187.88,187.53,187.42,187.21,186.61,185.54,185.41,185.06,184.99,184.7,184.64,184.22,183.92,183.62,183.58,183.12,181.89,181.49,181.27,181.02,180.54,180.31
434,3,corner,189.08,188.93,188.66,188.32,188.25,187.9,187.79,187.58,186.98,185.91,185.78,185.43,185.36,185.07,185.01,184.59,184.29,183.99,183.95,183.49,182.26,181.86,181.64,181.39,180.91,180.68
435,3,if,190.65,190.5,190.23,189.89,189.82,189.47,189.36,189.15,188.55,187.48,187.35,187,186.93,186.64,186.58,186.16,185.86,185.56,185.52,185.06,183.83,183.43,183.21,182.96,182.48,182.25
436,3,only,190.96,190.81,190.54,190.2,190.13,189.78,189.67,189.46,188.86,187.79,187.66,187.31,187.24,186.95,186.89,186.47,186.17,185.87,185.83,185.37,184.14,183.74,183.52,183.27,182.79,182.56
437,3,he,191.32,191.17,190.9,190.56,190.49,190.14,190.03,189.82,189.22,188.15,188.02,187.67,187.6,187.31,187.25,186.83,186.53,186.23,186.19,185.73,184.5,184.1,183.88,183.63,183.15,182.92
438,3,knew,191.61,191.46,191.19,190.85,190.78,190.43,190.32,190.11,189.51,188.44,188.31,187.96,187.89,187.6,187.54,187.12,186.82,186.52,186.48,186.02,184.79,184.39,184.17,183.92,183.44,183.21
439,3,what,191.84,191.69,191.42,191.08,191.01,190.66,190.55,190.34,189.74,188.67,188.54,188.19,188.12,187.83,187.77,187.35,187.05,186.75,186.71,186.25,185.02,184.62,184.4,184.15,183.67,183.44
440,3,his,191.98,191.83,191.56,191.22,191.15,190.8,190.69,190.48,189.88,188.81,188.68,188.33,188.26,187.97,187.91,187.49,187.19,186.89,186.85,186.39,185.16,184.76,184.54,184.29,183.81,183.58
441,3,mother,192.19,192.04,191.77,191.43,191.36,191.01,190.9,190.69,190.09,189.02,188.89,188.54,188.47,188.18,188.12,187.7,187.4,187.1,187.06,186.6,185.37,184.97,184.75,184.5,184.02,183.79
442,3,and,192.48,192.33,192.06,191.72,191.65,191.3,191.19,190.98,190.38,189.31,189.18,188.83,188.76,188.47,188.41,187.99,187.69,187.39,187.35,186.89,185.66,185.26,185.04,184.79,184.31,184.08
443,3,father,192.59,192.44,192.17,191.83,191.76,191.41,191.3,191.09,190.49,189.42,189.29,188.94,188.87,188.58,188.52,188.1,187.8,187.5,187.46,187,185.77,185.37,185.15,184.9,184.42,184.19
444,3,would,192.96,192.81,192.54,192.2,192.13,191.78,191.67,191.46,190.86,189.79,189.66,189.31,189.24,188.95,188.89,188.47,188.17,187.87,187.83,187.37,186.14,185.74,185.52,185.27,184.79,184.56
445,3,say,193.12,192.97,192.7,192.36,192.29,191.94,191.83,191.62,191.02,189.95,189.82,189.47,189.4,189.11,189.05,188.63,188.33,188.03,187.99,187.53,186.3,185.9,185.68,185.43,184.95,184.72
446,3,he,194.52,194.37,194.1,193.76,193.69,193.34,193.23,193.02,192.42,191.35,191.22,190.87,190.8,190.51,190.45,190.03,189.73,189.43,189.39,188.93,187.7,187.3,187.08,186.83,186.35,186.12
447,3,fingered,194.67,194.52,194.25,193.91,193.84,193.49,193.38,193.17,192.57,191.5,191.37,191.02,190.95,190.66,190.6,190.18,189.88,189.58,189.54,189.08,187.85,187.45,187.23,186.98,186.5,186.27
448,3,the,195.11,194.96,194.69,194.35,194.28,193.93,193.82,193.61,193.01,191.94,191.81,191.46,191.39,191.1,191.04,190.62,190.32,190.02,189.98,189.52,188.29,187.89,187.67,187.42,186.94,186.71
449,3,two,195.22,195.07,194.8,194.46,194.39,194.04,193.93,193.72,193.12,192.05,191.92,191.57,191.5,191.21,191.15,190.73,190.43,190.13,190.09,189.63,188.4,188,187.78,187.53,187.05,186.82
450,3,nickels,195.41,195.26,194.99,194.65,194.58,194.23,194.12,193.91,193.31,192.24,192.11,191.76,191.69,191.4,191.34,190.92,190.62,190.32,190.28,189.82,188.59,188.19,187.97,187.72,187.24,187.01
451,3,in,195.92,195.77,195.5,195.16,195.09,194.74,194.63,194.42,193.82,192.75,192.62,192.27,192.2,191.91,191.85,191.43,191.13,190.83,190.79,190.33,189.1,188.7,188.48,188.23,187.75,187.52
452,3,his,196.02,195.87,195.6,195.26,195.19,194.84,194.73,194.52,193.92,192.85,192.72,192.37,192.3,192.01,191.95,191.53,191.23,190.93,190.89,190.43,189.2,188.8,188.58,188.33,187.85,187.62
453,3,pocket,196.25,196.1,195.83,195.49,195.42,195.07,194.96,194.75,194.15,193.08,192.95,192.6,192.53,192.24,192.18,191.76,191.46,191.16,191.12,190.66,189.43,189.03,188.81,188.56,188.08,187.85
454,3,that,198.06,197.91,197.64,197.3,197.23,196.88,196.77,196.56,195.96,194.89,194.76,194.41,194.34,194.05,193.99,193.57,193.27,192.97,192.93,192.47,191.24,190.84,190.62,190.37,189.89,189.66
455,3,was,198.34,198.19,197.92,197.58,197.51,197.16,197.05,196.84,196.24,195.17,195.04,194.69,194.62,194.33,194.27,193.85,193.55,193.25,193.21,192.75,191.52,191.12,190.9,190.65,190.17,189.94
456,3,it,198.52,198.37,198.1,197.76,197.69,197.34,197.23,197.02,196.42,195.35,195.22,194.87,194.8,194.51,194.45,194.03,193.73,193.43,193.39,192.93,191.7,191.3,191.08,190.83,190.35,190.12
457,3,he,199.34,199.19,198.92,198.58,198.51,198.16,198.05,197.84,197.24,196.17,196.04,195.69,195.62,195.33,195.27,194.85,194.55,194.25,194.21,193.75,192.52,192.12,191.9,191.65,191.17,190.94
458,3,would,199.53,199.38,199.11,198.77,198.7,198.35,198.24,198.03,197.43,196.36,196.23,195.88,195.81,195.52,195.46,195.04,194.74,194.44,194.4,193.94,192.71,192.31,192.09,191.84,191.36,191.13
459,3,use,199.7,199.55,199.28,198.94,198.87,198.52,198.41,198.2,197.6,196.53,196.4,196.05,195.98,195.69,195.63,195.21,194.91,194.61,194.57,194.11,192.88,192.48,192.26,192.01,191.53,191.3
460,3,one,200.15,200,199.73,199.39,199.32,198.97,198.86,198.65,198.05,196.98,196.85,196.5,196.43,196.14,196.08,195.66,195.36,195.06,195.02,194.56,193.33,192.93,192.71,192.46,191.98,191.75
461,3,of,200.35,200.2,199.93,199.59,199.52,199.17,199.06,198.85,198.25,197.18,197.05,196.7,196.63,196.34,196.28,195.86,195.56,195.26,195.22,194.76,193.53,193.13,192.91,192.66,192.18,191.95
462,3,the,200.41,200.26,199.99,199.65,199.58,199.23,199.12,198.91,198.31,197.24,197.11,196.76,196.69,196.4,196.34,195.92,195.62,195.32,195.28,194.82,193.59,193.19,192.97,192.72,192.24,192.01
463,3,nickels,200.55,200.4,200.13,199.79,199.72,199.37,199.26,199.05,198.45,197.38,197.25,196.9,196.83,196.54,196.48,196.06,195.76,195.46,195.42,194.96,193.73,193.33,193.11,192.86,192.38,192.15
464,3,to,200.99,200.84,200.57,200.23,200.16,199.81,199.7,199.49,198.89,197.82,197.69,197.34,197.27,196.98,196.92,196.5,196.2,195.9,195.86,195.4,194.17,193.77,193.55,193.3,192.82,192.59
465,3,phone,201.08,200.93,200.66,200.32,200.25,199.9,199.79,199.58,198.98,197.91,197.78,197.43,197.36,197.07,197.01,196.59,196.29,195.99,195.95,195.49,194.26,193.86,193.64,193.39,192.91,192.68
466,3,his,201.41,201.26,200.99,200.65,200.58,200.23,200.12,199.91,199.31,198.24,198.11,197.76,197.69,197.4,197.34,196.92,196.62,196.32,196.28,195.82,194.59,194.19,193.97,193.72,193.24,193.01
467,3,mother,201.59,201.44,201.17,200.83,200.76,200.41,200.3,200.09,199.49,198.42,198.29,197.94,197.87,197.58,197.52,197.1,196.8,196.5,196.46,196,194.77,194.37,194.15,193.9,193.42,193.19
468,3,come,203.4,203.25,202.98,202.64,202.57,202.22,202.11,201.9,201.3,200.23,200.1,199.75,199.68,199.39,199.33,198.91,198.61,198.31,198.27,197.81,196.58,196.18,195.96,195.71,195.23,195
469,3,on,203.61,203.46,203.19,202.85,202.78,202.43,202.32,202.11,201.51,200.44,200.31,199.96,199.89,199.6,199.54,199.12,198.82,198.52,198.48,198.02,196.79,196.39,196.17,195.92,195.44,195.21
470,3,ribsy,203.96,203.81,203.54,203.2,203.13,202.78,202.67,202.46,201.86,200.79,200.66,200.31,200.24,199.95,199.89,199.47,199.17,198.87,198.83,198.37,197.14,196.74,196.52,196.27,195.79,195.56
471,3,come,205.26,205.11,204.84,204.5,204.43,204.08,203.97,203.76,203.16,202.09,201.96,201.61,201.54,201.25,201.19,200.77,200.47,200.17,200.13,199.67,198.44,198.04,197.82,197.57,197.09,196.86
472,3,on,205.45,205.3,205.03,204.69,204.62,204.27,204.16,203.95,203.35,202.28,202.15,201.8,201.73,201.44,201.38,200.96,200.66,200.36,200.32,199.86,198.63,198.23,198.01,197.76,197.28,197.05
473,3,ribs,205.67,205.52,205.25,204.91,204.84,204.49,204.38,204.17,203.57,202.5,202.37,202.02,201.95,201.66,201.6,201.18,200.88,200.58,200.54,200.08,198.85,198.45,198.23,197.98,197.5,197.27
474,3,old,206.15,206,205.73,205.39,205.32,204.97,204.86,204.65,204.05,202.98,202.85,202.5,202.43,202.14,202.08,201.66,201.36,201.06,201.02,200.56,199.33,198.93,198.71,198.46,197.98,197.75
475,3,boy,206.33,206.18,205.91,205.57,205.5,205.15,205.04,204.83,204.23,203.16,203.03,202.68,202.61,202.32,202.26,201.84,201.54,201.24,201.2,200.74,199.51,199.11,198.89,198.64,198.16,197.93
476,3,i'm,207.54,207.39,207.12,206.78,206.71,206.36,206.25,206.04,205.44,204.37,204.24,203.89,203.82,203.53,203.47,203.05,202.75,202.45,202.41,201.95,200.72,200.32,200.1,199.85,199.37,199.14
477,3,going,207.76,207.61,207.34,207,206.93,206.58,206.47,206.26,205.66,204.59,204.46,204.11,204.04,203.75,203.69,203.27,202.97,202.67,202.63,202.17,200.94,200.54,200.32,200.07,199.59,199.36
478,3,to,207.92,207.77,207.5,207.16,207.09,206.74,206.63,206.42,205.82,204.75,204.62,204.27,204.2,203.91,203.85,203.43,203.13,202.83,202.79,202.33,201.1,200.7,200.48,200.23,199.75,199.52
479,3,call,207.97,207.82,207.55,207.21,207.14,206.79,206.68,206.47,205.87,204.8,204.67,204.32,204.25,203.96,203.9,203.48,203.18,202.88,202.84,202.38,201.15,200.75,200.53,200.28,199.8,199.57
480,3,you,208.17,208.02,207.75,207.41,207.34,206.99,206.88,206.67,206.07,205,204.87,204.52,204.45,204.16,204.1,203.68,203.38,203.08,203.04,202.58,201.35,200.95,200.73,200.48,200,199.77
481,3,ribsy,208.41,208.26,207.99,207.65,207.58,207.23,207.12,206.91,206.31,205.24,205.11,204.76,204.69,204.4,204.34,203.92,203.62,203.32,203.28,202.82,201.59,201.19,200.97,200.72,200.24,200.01
482,3,because,209.27,209.12,208.85,208.51,208.44,208.09,207.98,207.77,207.17,206.1,205.97,205.62,205.55,205.26,205.2,204.78,204.48,204.18,204.14,203.68,202.45,202.05,201.83,201.58,201.1,200.87
483,3,you're,209.61,209.46,209.19,208.85,208.78,208.43,208.32,208.11,207.51,206.44,206.31,205.96,205.89,205.6,205.54,205.12,204.82,204.52,204.48,204.02,202.79,202.39,202.17,201.92,201.44,201.21
484,3,so,209.72,209.57,209.3,208.96,208.89,208.54,208.43,208.22,207.62,206.55,206.42,206.07,206,205.71,205.65,205.23,204.93,204.63,204.59,204.13,202.9,202.5,202.28,202.03,201.55,201.32
485,3,thin,209.97,209.82,209.55,209.21,209.14,208.79,208.68,208.47,207.87,206.8,206.67,206.32,206.25,205.96,205.9,205.48,205.18,204.88,204.84,204.38,203.15,202.75,202.53,202.28,201.8,201.57
486,3,the,211.7,211.55,211.28,210.94,210.87,210.52,210.41,210.2,209.6,208.53,208.4,208.05,207.98,207.69,207.63,207.21,206.91,206.61,206.57,206.11,204.88,204.48,204.26,204.01,203.53,203.3
487,3,dog,211.8,211.65,211.38,211.04,210.97,210.62,210.51,210.3,209.7,208.63,208.5,208.15,208.08,207.79,207.73,207.31,207.01,206.71,206.67,206.21,204.98,204.58,204.36,204.11,203.63,203.4
488,3,trotted,212.13,211.98,211.71,211.37,211.3,210.95,210.84,210.63,210.03,208.96,208.83,208.48,208.41,208.12,208.06,207.64,207.34,207.04,207,206.54,205.31,204.91,204.69,204.44,203.96,203.73
489,3,after,212.46,212.31,212.04,211.7,211.63,211.28,211.17,210.96,210.36,209.29,209.16,208.81,208.74,208.45,208.39,207.97,207.67,207.37,207.33,206.87,205.64,205.24,205.02,204.77,204.29,204.06
490,3,the,212.73,212.58,212.31,211.97,211.9,211.55,211.44,211.23,210.63,209.56,209.43,209.08,209.01,208.72,208.66,208.24,207.94,207.64,207.6,207.14,205.91,205.51,205.29,205.04,204.56,204.33
491,3,boy,212.81,212.66,212.39,212.05,211.98,211.63,211.52,211.31,210.71,209.64,209.51,209.16,209.09,208.8,208.74,208.32,208.02,207.72,207.68,207.22,205.99,205.59,205.37,205.12,204.64,204.41
492,3,to,213.06,212.91,212.64,212.3,212.23,211.88,211.77,211.56,210.96,209.89,209.76,209.41,209.34,209.05,208.99,208.57,208.27,207.97,207.93,207.47,206.24,205.84,205.62,205.37,204.89,204.66
493,3,the,213.21,213.06,212.79,212.45,212.38,212.03,211.92,211.71,211.11,210.04,209.91,209.56,209.49,209.2,209.14,208.72,208.42,208.12,208.08,207.62,206.39,205.99,205.77,205.52,205.04,204.81
494,3,telephone,213.29,213.14,212.87,212.53,212.46,212.11,212,211.79,211.19,210.12,209.99,209.64,209.57,209.28,209.22,208.8,208.5,208.2,208.16,207.7,206.47,206.07,205.85,205.6,205.12,204.89
495,3,booth,213.87,213.72,213.45,213.11,213.04,212.69,212.58,212.37,211.77,210.7,210.57,210.22,210.15,209.86,209.8,209.38,209.08,208.78,208.74,208.28,207.05,206.65,206.43,206.18,205.7,205.47
496,3,in,214.28,214.13,213.86,213.52,213.45,213.1,212.99,212.78,212.18,211.11,210.98,210.63,210.56,210.27,210.21,209.79,209.49,209.19,209.15,208.69,207.46,207.06,206.84,206.59,206.11,205.88
497,3,the,214.38,214.23,213.96,213.62,213.55,213.2,213.09,212.88,212.28,211.21,211.08,210.73,210.66,210.37,210.31,209.89,209.59,209.29,209.25,208.79,207.56,207.16,206.94,206.69,206.21,205.98
498,3,corner,214.45,214.3,214.03,213.69,213.62,213.27,213.16,212.95,212.35,211.28,211.15,210.8,210.73,210.44,210.38,209.96,209.66,209.36,209.32,208.86,207.63,207.23,207.01,206.76,206.28,206.05
499,3,of,214.89,214.74,214.47,214.13,214.06,213.71,213.6,213.39,212.79,211.72,211.59,211.24,211.17,210.88,210.82,210.4,210.1,209.8,209.76,209.3,208.07,207.67,207.45,207.2,206.72,206.49
500,3,the,214.96,214.81,214.54,214.2,214.13,213.78,213.67,213.46,212.86,211.79,211.66,211.31,211.24,210.95,210.89,210.47,210.17,209.87,209.83,209.37,208.14,207.74,207.52,207.27,206.79,206.56
501,3,drugstore,215.09,214.94,214.67,214.33,214.26,213.91,213.8,213.59,212.99,211.92,211.79,211.44,211.37,211.08,211.02,210.6,210.3,210,209.96,209.5,208.27,207.87,207.65,207.4,206.92,206.69
502,3,henry,216.62,216.47,216.2,215.86,215.79,215.44,215.33,215.12,214.52,213.45,213.32,212.97,212.9,212.61,212.55,212.13,211.83,211.53,211.49,211.03,209.8,209.4,209.18,208.93,208.45,208.22
503,3,shoved,217.01,216.86,216.59,216.25,216.18,215.83,215.72,215.51,214.91,213.84,213.71,213.36,213.29,213,212.94,212.52,212.22,211.92,211.88,211.42,210.19,209.79,209.57,209.32,208.84,208.61
504,3,him,217.38,217.23,216.96,216.62,216.55,216.2,216.09,215.88,215.28,214.21,214.08,213.73,213.66,213.37,213.31,212.89,212.59,212.29,212.25,211.79,210.56,210.16,209.94,209.69,209.21,208.98
505,3,into,217.49,217.34,217.07,216.73,216.66,216.31,216.2,215.99,215.39,214.32,214.19,213.84,213.77,213.48,213.42,213,212.7,212.4,212.36,211.9,210.67,210.27,210.05,209.8,209.32,209.09
506,3,the,217.69,217.54,217.27,216.93,216.86,216.51,216.4,216.19,215.59,214.52,214.39,214.04,213.97,213.68,213.62,213.2,212.9,212.6,212.56,212.1,210.87,210.47,210.25,210,209.52,209.29
507,3,booth,217.78,217.63,217.36,217.02,216.95,216.6,216.49,216.28,215.68,214.61,214.48,214.13,214.06,213.77,213.71,213.29,212.99,212.69,212.65,212.19,210.96,210.56,210.34,210.09,209.61,209.38
508,3,and,218.22,218.07,217.8,217.46,217.39,217.04,216.93,216.72,216.12,215.05,214.92,214.57,214.5,214.21,214.15,213.73,213.43,213.13,213.09,212.63,211.4,211,210.78,210.53,210.05,209.82
509,3,shut,218.3,218.15,217.88,217.54,217.47,217.12,217.01,216.8,216.2,215.13,215,214.65,214.58,214.29,214.23,213.81,213.51,213.21,213.17,212.71,211.48,211.08,210.86,210.61,210.13,209.9
510,3,the,218.53,218.38,218.11,217.77,217.7,217.35,217.24,217.03,216.43,215.36,215.23,214.88,214.81,214.52,214.46,214.04,213.74,213.44,213.4,212.94,211.71,211.31,211.09,210.84,210.36,210.13
511,3,door,218.61,218.46,218.19,217.85,217.78,217.43,217.32,217.11,216.51,215.44,215.31,214.96,214.89,214.6,214.54,214.12,213.82,213.52,213.48,213.02,211.79,211.39,211.17,210.92,210.44,210.21
512,3,he,219.92,219.77,219.5,219.16,219.09,218.74,218.63,218.42,217.82,216.75,216.62,216.27,216.2,215.91,215.85,215.43,215.13,214.83,214.79,214.33,213.1,212.7,212.48,212.23,211.75,211.52
513,3,had,220.1,219.95,219.68,219.34,219.27,218.92,218.81,218.6,218,216.93,216.8,216.45,216.38,216.09,216.03,215.61,215.31,215.01,214.97,214.51,213.28,212.88,212.66,212.41,211.93,211.7
514,3,never,220.25,220.1,219.83,219.49,219.42,219.07,218.96,218.75,218.15,217.08,216.95,216.6,216.53,216.24,216.18,215.76,215.46,215.16,215.12,214.66,213.43,213.03,212.81,212.56,212.08,211.85
515,3,used,220.53,220.38,220.11,219.77,219.7,219.35,219.24,219.03,218.43,217.36,217.23,216.88,216.81,216.52,216.46,216.04,215.74,215.44,215.4,214.94,213.71,213.31,213.09,212.84,212.36,212.13
516,3,a,220.98,220.83,220.56,220.22,220.15,219.8,219.69,219.48,218.88,217.81,217.68,217.33,217.26,216.97,216.91,216.49,216.19,215.89,215.85,215.39,214.16,213.76,213.54,213.29,212.81,212.58
517,3,pay,221.02,220.87,220.6,220.26,220.19,219.84,219.73,219.52,218.92,217.85,217.72,217.37,217.3,217.01,216.95,216.53,216.23,215.93,215.89,215.43,214.2,213.8,213.58,213.33,212.85,212.62
518,3,telephone,221.32,221.17,220.9,220.56,220.49,220.14,220.03,219.82,219.22,218.15,218.02,217.67,217.6,217.31,217.25,216.83,216.53,216.23,216.19,215.73,214.5,214.1,213.88,213.63,213.15,212.92
519,3,before,221.93,221.78,221.51,221.17,221.1,220.75,220.64,220.43,219.83,218.76,218.63,218.28,218.21,217.92,217.86,217.44,217.14,216.84,216.8,216.34,215.11,214.71,214.49,214.24,213.76,213.53
520,3,he,223.2,223.05,222.78,222.44,222.37,222.02,221.91,221.7,221.1,220.03,219.9,219.55,219.48,219.19,219.13,218.71,218.41,218.11,218.07,217.61,216.38,215.98,215.76,215.51,215.03,214.8
521,3,had,223.4,223.25,222.98,222.64,222.57,222.22,222.11,221.9,221.3,220.23,220.1,219.75,219.68,219.39,219.33,218.91,218.61,218.31,218.27,217.81,216.58,216.18,215.96,215.71,215.23,215
522,3,to,223.56,223.41,223.14,222.8,222.73,222.38,222.27,222.06,221.46,220.39,220.26,219.91,219.84,219.55,219.49,219.07,218.77,218.47,218.43,217.97,216.74,216.34,216.12,215.87,215.39,215.16
523,3,put,223.63,223.48,223.21,222.87,222.8,222.45,222.34,222.13,221.53,220.46,220.33,219.98,219.91,219.62,219.56,219.14,218.84,218.54,218.5,218.04,216.81,216.41,216.19,215.94,215.46,215.23
524,3,the,223.8,223.65,223.38,223.04,222.97,222.62,222.51,222.3,221.7,220.63,220.5,220.15,220.08,219.79,219.73,219.31,219.01,218.71,218.67,218.21,216.98,216.58,216.36,216.11,215.63,215.4
525,3,big,223.89,223.74,223.47,223.13,223.06,222.71,222.6,222.39,221.79,220.72,220.59,220.24,220.17,219.88,219.82,219.4,219.1,218.8,218.76,218.3,217.07,216.67,216.45,216.2,215.72,215.49
526,3,thick,224.45,224.3,224.03,223.69,223.62,223.27,223.16,222.95,222.35,221.28,221.15,220.8,220.73,220.44,220.38,219.96,219.66,219.36,219.32,218.86,217.63,217.23,217.01,216.76,216.28,216.05
527,3,telephone,224.82,224.67,224.4,224.06,223.99,223.64,223.53,223.32,222.72,221.65,221.52,221.17,221.1,220.81,220.75,220.33,220.03,219.73,219.69,219.23,218,217.6,217.38,217.13,216.65,216.42
528,3,book,225.4,225.25,224.98,224.64,224.57,224.22,224.11,223.9,223.3,222.23,222.1,221.75,221.68,221.39,221.33,220.91,220.61,220.31,220.27,219.81,218.58,218.18,217.96,217.71,217.23,217
529,3,on,225.62,225.47,225.2,224.86,224.79,224.44,224.33,224.12,223.52,222.45,222.32,221.97,221.9,221.61,221.55,221.13,220.83,220.53,220.49,220.03,218.8,218.4,218.18,217.93,217.45,217.22
530,3,the,225.78,225.63,225.36,225.02,224.95,224.6,224.49,224.28,223.68,222.61,222.48,222.13,222.06,221.77,221.71,221.29,220.99,220.69,220.65,220.19,218.96,218.56,218.34,218.09,217.61,217.38
531,3,floor,225.82,225.67,225.4,225.06,224.99,224.64,224.53,224.32,223.72,222.65,222.52,222.17,222.1,221.81,221.75,221.33,221.03,220.73,220.69,220.23,219,218.6,218.38,218.13,217.65,217.42
532,3,and,226.64,226.49,226.22,225.88,225.81,225.46,225.35,225.14,224.54,223.47,223.34,222.99,222.92,222.63,222.57,222.15,221.85,221.55,221.51,221.05,219.82,219.42,219.2,218.95,218.47,218.24
533,3,stand,226.76,226.61,226.34,226,225.93,225.58,225.47,225.26,224.66,223.59,223.46,223.11,223.04,222.75,222.69,222.27,221.97,221.67,221.63,221.17,219.94,219.54,219.32,219.07,218.59,218.36
534,3,on,227.12,226.97,226.7,226.36,226.29,225.94,225.83,225.62,225.02,223.95,223.82,223.47,223.4,223.11,223.05,222.63,222.33,222.03,221.99,221.53,220.3,219.9,219.68,219.43,218.95,218.72
535,3,tiptoe,227.33,227.18,226.91,226.57,226.5,226.15,226.04,225.83,225.23,224.16,224.03,223.68,223.61,223.32,223.26,222.84,222.54,222.24,222.2,221.74,220.51,220.11,219.89,219.64,219.16,218.93
536,3,on,227.75,227.6,227.33,226.99,226.92,226.57,226.46,226.25,225.65,224.58,224.45,224.1,224.03,223.74,223.68,223.26,222.96,222.66,222.62,222.16,220.93,220.53,220.31,220.06,219.58,219.35
537,3,it,228.01,227.86,227.59,227.25,227.18,226.83,226.72,226.51,225.91,224.84,224.71,224.36,224.29,224,223.94,223.52,223.22,222.92,222.88,222.42,221.19,220.79,220.57,220.32,219.84,219.61
538,3,to,228.28,228.13,227.86,227.52,227.45,227.1,226.99,226.78,226.18,225.11,224.98,224.63,224.56,224.27,224.21,223.79,223.49,223.19,223.15,222.69,221.46,221.06,220.84,220.59,220.11,219.88
539,3,reach,228.42,228.27,228,227.66,227.59,227.24,227.13,226.92,226.32,225.25,225.12,224.77,224.7,224.41,224.35,223.93,223.63,223.33,223.29,222.83,221.6,221.2,220.98,220.73,220.25,220.02
540,3,the,228.69,228.54,228.27,227.93,227.86,227.51,227.4,227.19,226.59,225.52,225.39,225.04,224.97,224.68,224.62,224.2,223.9,223.6,223.56,223.1,221.87,221.47,221.25,221,220.52,220.29
541,3,mouthpiece,228.77,228.62,228.35,228.01,227.94,227.59,227.48,227.27,226.67,225.6,225.47,225.12,225.05,224.76,224.7,224.28,223.98,223.68,223.64,223.18,221.95,221.55,221.33,221.08,220.6,220.37
542,3,he,230.55,230.4,230.13,229.79,229.72,229.37,229.26,229.05,228.45,227.38,227.25,226.9,226.83,226.54,226.48,226.06,225.76,225.46,225.42,224.96,223.73,223.33,223.11,222.86,222.38,222.15
543,3,dropped,230.71,230.56,230.29,229.95,229.88,229.53,229.42,229.21,228.61,227.54,227.41,227.06,226.99,226.7,226.64,226.22,225.92,225.62,225.58,225.12,223.89,223.49,223.27,223.02,222.54,222.31
544,3,his,231.02,230.87,230.6,230.26,230.19,229.84,229.73,229.52,228.92,227.85,227.72,227.37,227.3,227.01,226.95,226.53,226.23,225.93,225.89,225.43,224.2,223.8,223.58,223.33,222.85,222.62
545,3,nickel,231.19,231.04,230.77,230.43,230.36,230.01,229.9,229.69,229.09,228.02,227.89,227.54,227.47,227.18,227.12,226.7,226.4,226.1,226.06,225.6,224.37,223.97,223.75,223.5,223.02,222.79
546,3,into,231.55,231.4,231.13,230.79,230.72,230.37,230.26,230.05,229.45,228.38,228.25,227.9,227.83,227.54,227.48,227.06,226.76,226.46,226.42,225.96,224.73,224.33,224.11,223.86,223.38,223.15
547,3,the,231.8,231.65,231.38,231.04,230.97,230.62,230.51,230.3,229.7,228.63,228.5,228.15,228.08,227.79,227.73,227.31,227.01,226.71,226.67,226.21,224.98,224.58,224.36,224.11,223.63,223.4
548,3,coin,231.89,231.74,231.47,231.13,231.06,230.71,230.6,230.39,229.79,228.72,228.59,228.24,228.17,227.88,227.82,227.4,227.1,226.8,226.76,226.3,225.07,224.67,224.45,224.2,223.72,223.49
549,3,box,232.23,232.08,231.81,231.47,231.4,231.05,230.94,230.73,230.13,229.06,228.93,228.58,228.51,228.22,228.16,227.74,227.44,227.14,227.1,226.64,225.41,225.01,224.79,224.54,224.06,223.83
550,3,and,232.9,232.75,232.48,232.14,232.07,231.72,231.61,231.4,230.8,229.73,229.6,229.25,229.18,228.89,228.83,228.41,228.11,227.81,227.77,227.31,226.08,225.68,225.46,225.21,224.73,224.5
551,3,dialed,233.08,232.93,232.66,232.32,232.25,231.9,231.79,231.58,230.98,229.91,229.78,229.43,229.36,229.07,229.01,228.59,228.29,227.99,227.95,227.49,226.26,225.86,225.64,225.39,224.91,224.68
552,3,the,233.44,233.29,233.02,232.68,232.61,232.26,232.15,231.94,231.34,230.27,230.14,229.79,229.72,229.43,229.37,228.95,228.65,228.35,228.31,227.85,226.62,226.22,226,225.75,225.27,225.04
553,3,number,233.58,233.43,233.16,232.82,232.75,232.4,232.29,232.08,231.48,230.41,230.28,229.93,229.86,229.57,229.51,229.09,228.79,228.49,228.45,227.99,226.76,226.36,226.14,225.89,225.41,225.18
554,4,hello,236.46,236.31,236.04,235.7,235.63,235.28,235.17,234.96,234.36,233.29,233.16,232.81,232.74,232.45,232.39,231.97,231.67,231.37,231.33,230.87,229.64,229.24,229.02,228.77,228.29,228.06
555,4,mom,237.64,237.49,237.22,236.88,236.81,236.46,236.35,236.14,235.54,234.47,234.34,233.99,233.92,233.63,233.57,233.15,232.85,232.55,232.51,232.05,230.82,230.42,230.2,229.95,229.47,229.24
556,4,why,239.09,238.94,238.67,238.33,238.26,237.91,237.8,237.59,236.99,235.92,235.79,235.44,235.37,235.08,235.02,234.6,234.3,234,233.96,233.5,232.27,231.87,231.65,231.4,230.92,230.69
557,4,henry,239.41,239.26,238.99,238.65,238.58,238.23,238.12,237.91,237.31,236.24,236.11,235.76,235.69,235.4,235.34,234.92,234.62,234.32,234.28,233.82,232.59,232.19,231.97,231.72,231.24,231.01
558,4,his,241.06,240.91,240.64,240.3,240.23,239.88,239.77,239.56,238.96,237.89,237.76,237.41,237.34,237.05,236.99,236.57,236.27,235.97,235.93,235.47,234.24,233.84,233.62,233.37,232.89,232.66
559,4,mother,241.28,241.13,240.86,240.52,240.45,240.1,239.99,239.78,239.18,238.11,237.98,237.63,237.56,237.27,237.21,236.79,236.49,236.19,236.15,235.69,234.46,234.06,233.84,233.59,233.11,232.88
560,4,sounded,241.67,241.52,241.25,240.91,240.84,240.49,240.38,240.17,239.57,238.5,238.37,238.02,237.95,237.66,237.6,237.18,236.88,236.58,236.54,236.08,234.85,234.45,234.23,233.98,233.5,233.27
561,4,surprised,242.07,241.92,241.65,241.31,241.24,240.89,240.78,240.57,239.97,238.9,238.77,238.42,238.35,238.06,238,237.58,237.28,236.98,236.94,236.48,235.25,234.85,234.63,234.38,233.9,233.67
562,4,where,243.24,243.09,242.82,242.48,242.41,242.06,241.95,241.74,241.14,240.07,239.94,239.59,239.52,239.23,239.17,238.75,238.45,238.15,238.11,237.65,236.42,236.02,235.8,235.55,235.07,234.84
563,4,are,243.8,243.65,243.38,243.04,242.97,242.62,242.51,242.3,241.7,240.63,240.5,240.15,240.08,239.79,239.73,239.31,239.01,238.71,238.67,238.21,236.98,236.58,236.36,236.11,235.63,235.4
564,4,you,244.1,243.95,243.68,243.34,243.27,242.92,242.81,242.6,242,240.93,240.8,240.45,240.38,240.09,240.03,239.61,239.31,239.01,238.97,238.51,237.28,236.88,236.66,236.41,235.93,235.7
565,4,at,245.44,245.29,245.02,244.68,244.61,244.26,244.15,243.94,243.34,242.27,242.14,241.79,241.72,241.43,241.37,240.95,240.65,240.35,240.31,239.85,238.62,238.22,238,237.75,237.27,237.04
566,4,the,245.58,245.43,245.16,244.82,244.75,244.4,244.29,244.08,243.48,242.41,242.28,241.93,241.86,241.57,241.51,241.09,240.79,240.49,240.45,239.99,238.76,238.36,238.14,237.89,237.41,237.18
567,4,drugstore,245.7,245.55,245.28,244.94,244.87,244.52,244.41,244.2,243.6,242.53,242.4,242.05,241.98,241.69,241.63,241.21,240.91,240.61,240.57,240.11,238.88,238.48,238.26,238.01,237.53,237.3
568,4,near,246.27,246.12,245.85,245.51,245.44,245.09,244.98,244.77,244.17,243.1,242.97,242.62,242.55,242.26,242.2,241.78,241.48,241.18,241.14,240.68,239.45,239.05,238.83,238.58,238.1,237.87
569,4,the,246.54,246.39,246.12,245.78,245.71,245.36,245.25,245.04,244.44,243.37,243.24,242.89,242.82,242.53,242.47,242.05,241.75,241.45,241.41,240.95,239.72,239.32,239.1,238.85,238.37,238.14
570,4,gym,246.64,246.49,246.22,245.88,245.81,245.46,245.35,245.14,244.54,243.47,243.34,242.99,242.92,242.63,242.57,242.15,241.85,241.55,241.51,241.05,239.82,239.42,239.2,238.95,238.47,238.24
571,4,ribs,248.15,248,247.73,247.39,247.32,246.97,246.86,246.65,246.05,244.98,244.85,244.5,244.43,244.14,244.08,243.66,243.36,243.06,243.02,242.56,241.33,240.93,240.71,240.46,239.98,239.75
572,4,began,248.67,248.52,248.25,247.91,247.84,247.49,247.38,247.17,246.57,245.5,245.37,245.02,244.95,244.66,244.6,244.18,243.88,243.58,243.54,243.08,241.85,241.45,241.23,240.98,240.5,240.27
573,4,to,249,248.85,248.58,248.24,248.17,247.82,247.71,247.5,246.9,245.83,245.7,245.35,245.28,244.99,244.93,244.51,244.21,243.91,243.87,243.41,242.18,241.78,241.56,241.31,240.83,240.6
574,4,scratch,249.07,248.92,248.65,248.31,248.24,247.89,247.78,247.57,246.97,245.9,245.77,245.42,245.35,245.06,245,244.58,244.28,243.98,243.94,243.48,242.25,241.85,241.63,241.38,240.9,240.67
575,4,thump,250.25,250.1,249.83,249.49,249.42,249.07,248.96,248.75,248.15,247.08,246.95,246.6,246.53,246.24,246.18,245.76,245.46,245.16,245.12,244.66,243.43,243.03,242.81,242.56,242.08,241.85
576,4,thump,250.66,250.51,250.24,249.9,249.83,249.48,249.37,249.16,248.56,247.49,247.36,247.01,246.94,246.65,246.59,246.17,245.87,245.57,245.53,245.07,243.84,243.44,243.22,242.97,242.49,242.26
577,4,thump,251.03,250.88,250.61,250.27,250.2,249.85,249.74,249.53,248.93,247.86,247.73,247.38,247.31,247.02,246.96,246.54,246.24,245.94,245.9,245.44,244.21,243.81,243.59,243.34,242.86,242.63
578,4,inside,252.23,252.08,251.81,251.47,251.4,251.05,250.94,250.73,250.13,249.06,248.93,248.58,248.51,248.22,248.16,247.74,247.44,247.14,247.1,246.64,245.41,245.01,244.79,244.54,244.06,243.83
579,4,the,252.69,252.54,252.27,251.93,251.86,251.51,251.4,251.19,250.59,249.52,249.39,249.04,248.97,248.68,248.62,248.2,247.9,247.6,247.56,247.1,245.87,245.47,245.25,245,244.52,244.29
580,4,telephone,252.73,252.58,252.31,251.97,251.9,251.55,251.44,251.23,250.63,249.56,249.43,249.08,249.01,248.72,248.66,248.24,247.94,247.64,247.6,247.14,245.91,245.51,245.29,245.04,244.56,244.33
581,4,booth,253.33,253.18,252.91,252.57,252.5,252.15,252.04,251.83,251.23,250.16,250.03,249.68,249.61,249.32,249.26,248.84,248.54,248.24,248.2,247.74,246.51,246.11,245.89,245.64,245.16,244.93
582,4,the,253.72,253.57,253.3,252.96,252.89,252.54,252.43,252.22,251.62,250.55,250.42,250.07,250,249.71,249.65,249.23,248.93,248.63,248.59,248.13,246.9,246.5,246.28,246.03,245.55,245.32
583,4,thumps,253.88,253.73,253.46,253.12,253.05,252.7,252.59,252.38,251.78,250.71,250.58,250.23,250.16,249.87,249.81,249.39,249.09,248.79,248.75,248.29,247.06,246.66,246.44,246.19,245.71,245.48
584,4,sounded,254.33,254.18,253.91,253.57,253.5,253.15,253.04,252.83,252.23,251.16,251.03,250.68,250.61,250.32,250.26,249.84,249.54,249.24,249.2,248.74,247.51,247.11,246.89,246.64,246.16,245.93
585,4,loud,254.8,254.65,254.38,254.04,253.97,253.62,253.51,253.3,252.7,251.63,251.5,251.15,251.08,250.79,250.73,250.31,250.01,249.71,249.67,249.21,247.98,247.58,247.36,247.11,246.63,246.4
586,4,and,255.35,255.2,254.93,254.59,254.52,254.17,254.06,253.85,253.25,252.18,252.05,251.7,251.63,251.34,251.28,250.86,250.56,250.26,250.22,249.76,248.53,248.13,247.91,247.66,247.18,246.95
587,4,hollow,255.54,255.39,255.12,254.78,254.71,254.36,254.25,254.04,253.44,252.37,252.24,251.89,251.82,251.53,251.47,251.05,250.75,250.45,250.41,249.95,248.72,248.32,248.1,247.85,247.37,247.14
588,4,for,257.02,256.87,256.6,256.26,256.19,255.84,255.73,255.52,254.92,253.85,253.72,253.37,253.3,253.01,252.95,252.53,252.23,251.93,251.89,251.43,250.2,249.8,249.58,249.33,248.85,248.62
589,4,goodness,257.3,257.15,256.88,256.54,256.47,256.12,256.01,255.8,255.2,254.13,254,253.65,253.58,253.29,253.23,252.81,252.51,252.21,252.17,251.71,250.48,250.08,249.86,249.61,249.13,248.9
590,4,sake,258.04,257.89,257.62,257.28,257.21,256.86,256.75,256.54,255.94,254.87,254.74,254.39,254.32,254.03,253.97,253.55,253.25,252.95,252.91,252.45,251.22,250.82,250.6,250.35,249.87,249.64
591,4,henry,258.56,258.41,258.14,257.8,257.73,257.38,257.27,257.06,256.46,255.39,255.26,254.91,254.84,254.55,254.49,254.07,253.77,253.47,253.43,252.97,251.74,251.34,251.12,250.87,250.39,250.16
592,4,what's,259.51,259.36,259.09,258.75,258.68,258.33,258.22,258.01,257.41,256.34,256.21,255.86,255.79,255.5,255.44,255.02,254.72,254.42,254.38,253.92,252.69,252.29,252.07,251.82,251.34,251.11
593,4,that,259.79,259.64,259.37,259.03,258.96,258.61,258.5,258.29,257.69,256.62,256.49,256.14,256.07,255.78,255.72,255.3,255,254.7,254.66,254.2,252.97,252.57,252.35,252.1,251.62,251.39
594,4,noise,259.97,259.82,259.55,259.21,259.14,258.79,258.68,258.47,257.87,256.8,256.67,256.32,256.25,255.96,255.9,255.48,255.18,254.88,254.84,254.38,253.15,252.75,252.53,252.28,251.8,251.57
595,4,his,261.19,261.04,260.77,260.43,260.36,260.01,259.9,259.69,259.09,258.02,257.89,257.54,257.47,257.18,257.12,256.7,256.4,256.1,256.06,255.6,254.37,253.97,253.75,253.5,253.02,252.79
596,4,mother,261.39,261.24,260.97,260.63,260.56,260.21,260.1,259.89,259.29,258.22,258.09,257.74,257.67,257.38,257.32,256.9,256.6,256.3,256.26,255.8,254.57,254.17,253.95,253.7,253.22,252.99
597,4,demanded,261.62,261.47,261.2,260.86,260.79,260.44,260.33,260.12,259.52,258.45,258.32,257.97,257.9,257.61,257.55,257.13,256.83,256.53,256.49,256.03,254.8,254.4,254.18,253.93,253.45,253.22
598,4,ribs,262.87,262.72,262.45,262.11,262.04,261.69,261.58,261.37,260.77,259.7,259.57,259.22,259.15,258.86,258.8,258.38,258.08,257.78,257.74,257.28,256.05,255.65,255.43,255.18,254.7,254.47
599,4,began,263.36,263.21,262.94,262.6,262.53,262.18,262.07,261.86,261.26,260.19,260.06,259.71,259.64,259.35,259.29,258.87,258.57,258.27,258.23,257.77,256.54,256.14,255.92,255.67,255.19,254.96
600,4,to,263.67,263.52,263.25,262.91,262.84,262.49,262.38,262.17,261.57,260.5,260.37,260.02,259.95,259.66,259.6,259.18,258.88,258.58,258.54,258.08,256.85,256.45,256.23,255.98,255.5,255.27
601,4,whimper,263.74,263.59,263.32,262.98,262.91,262.56,262.45,262.24,261.64,260.57,260.44,260.09,260.02,259.73,259.67,259.25,258.95,258.65,258.61,258.15,256.92,256.52,256.3,256.05,255.57,255.34
602,4,and,264.88,264.73,264.46,264.12,264.05,263.7,263.59,263.38,262.78,261.71,261.58,261.23,261.16,260.87,260.81,260.39,260.09,259.79,259.75,259.29,258.06,257.66,257.44,257.19,256.71,256.48
603,4,then,265.17,265.02,264.75,264.41,264.34,263.99,263.88,263.67,263.07,262,261.87,261.52,261.45,261.16,261.1,260.68,260.38,260.08,260.04,259.58,258.35,257.95,257.73,257.48,257,256.77
604,4,to,265.77,265.62,265.35,265.01,264.94,264.59,264.48,264.27,263.67,262.6,262.47,262.12,262.05,261.76,261.7,261.28,260.98,260.68,260.64,260.18,258.95,258.55,258.33,258.08,257.6,257.37
605,4,howl,265.9,265.75,265.48,265.14,265.07,264.72,264.61,264.4,263.8,262.73,262.6,262.25,262.18,261.89,261.83,261.41,261.11,260.81,260.77,260.31,259.08,258.68,258.46,258.21,257.73,257.5
606,4,henry,267.31,267.16,266.89,266.55,266.48,266.13,266.02,265.81,265.21,264.14,264.01,263.66,263.59,263.3,263.24,262.82,262.52,262.22,262.18,261.72,260.49,260.09,259.87,259.62,259.14,258.91
607,4,mrs,268.4,268.25,267.98,267.64,267.57,267.22,267.11,266.9,266.3,265.23,265.1,264.75,264.68,264.39,264.33,263.91,263.61,263.31,263.27,262.81,261.58,261.18,260.96,260.71,260.23,260
608,4,huggins,268.74,268.59,268.32,267.98,267.91,267.56,267.45,267.24,266.64,265.57,265.44,265.09,265.02,264.73,264.67,264.25,263.95,263.65,263.61,263.15,261.92,261.52,261.3,261.05,260.57,260.34
609,4,shouted,269.09,268.94,268.67,268.33,268.26,267.91,267.8,267.59,266.99,265.92,265.79,265.44,265.37,265.08,265.02,264.6,264.3,264,263.96,263.5,262.27,261.87,261.65,261.4,260.92,260.69
610,4,are,269.81,269.66,269.39,269.05,268.98,268.63,268.52,268.31,267.71,266.64,266.51,266.16,266.09,265.8,265.74,265.32,265.02,264.72,264.68,264.22,262.99,262.59,262.37,262.12,261.64,261.41
611,4,you,269.92,269.77,269.5,269.16,269.09,268.74,268.63,268.42,267.82,266.75,266.62,266.27,266.2,265.91,265.85,265.43,265.13,264.83,264.79,264.33,263.1,262.7,262.48,262.23,261.75,261.52
612,4,all,270.14,269.99,269.72,269.38,269.31,268.96,268.85,268.64,268.04,266.97,266.84,266.49,266.42,266.13,266.07,265.65,265.35,265.05,265.01,264.55,263.32,262.92,262.7,262.45,261.97,261.74
613,4,right,270.32,270.17,269.9,269.56,269.49,269.14,269.03,268.82,268.22,267.15,267.02,266.67,266.6,266.31,266.25,265.83,265.53,265.23,265.19,264.73,263.5,263.1,262.88,262.63,262.15,261.92
614,4,yes,271.68,271.53,271.26,270.92,270.85,270.5,270.39,270.18,269.58,268.51,268.38,268.03,267.96,267.67,267.61,267.19,266.89,266.59,266.55,266.09,264.86,264.46,264.24,263.99,263.51,263.28
615,4,i'm,272.41,272.26,271.99,271.65,271.58,271.23,271.12,270.91,270.31,269.24,269.11,268.76,268.69,268.4,268.34,267.92,267.62,267.32,267.28,266.82,265.59,265.19,264.97,264.72,264.24,264.01
616,4,all,272.64,272.49,272.22,271.88,271.81,271.46,271.35,271.14,270.54,269.47,269.34,268.99,268.92,268.63,268.57,268.15,267.85,267.55,267.51,267.05,265.82,265.42,265.2,264.95,264.47,264.24
617,4,right,273.02,272.87,272.6,272.26,272.19,271.84,271.73,271.52,270.92,269.85,269.72,269.37,269.3,269.01,268.95,268.53,268.23,267.93,267.89,267.43,266.2,265.8,265.58,265.33,264.85,264.62
618,4,henry,274.34,274.19,273.92,273.58,273.51,273.16,273.05,272.84,272.24,271.17,271.04,270.69,270.62,270.33,270.27,269.85,269.55,269.25,269.21,268.75,267.52,267.12,266.9,266.65,266.17,265.94
619,4,shouted,274.68,274.53,274.26,273.92,273.85,273.5,273.39,273.18,272.58,271.51,271.38,271.03,270.96,270.67,270.61,270.19,269.89,269.59,269.55,269.09,267.86,267.46,267.24,266.99,266.51,266.28
620,4,back,275.06,274.91,274.64,274.3,274.23,273.88,273.77,273.56,272.96,271.89,271.76,271.41,271.34,271.05,270.99,270.57,270.27,269.97,269.93,269.47,268.24,267.84,267.62,267.37,266.89,266.66
621,4,he,276,275.85,275.58,275.24,275.17,274.82,274.71,274.5,273.9,272.83,272.7,272.35,272.28,271.99,271.93,271.51,271.21,270.91,270.87,270.41,269.18,268.78,268.56,268.31,267.83,267.6
622,4,never,276.22,276.07,275.8,275.46,275.39,275.04,274.93,274.72,274.12,273.05,272.92,272.57,272.5,272.21,272.15,271.73,271.43,271.13,271.09,270.63,269.4,269,268.78,268.53,268.05,267.82
623,4,could,276.78,276.63,276.36,276.02,275.95,275.6,275.49,275.28,274.68,273.61,273.48,273.13,273.06,272.77,272.71,272.29,271.99,271.69,271.65,271.19,269.96,269.56,269.34,269.09,268.61,268.38
624,4,understand,276.93,276.78,276.51,276.17,276.1,275.75,275.64,275.43,274.83,273.76,273.63,273.28,273.21,272.92,272.86,272.44,272.14,271.84,271.8,271.34,270.11,269.71,269.49,269.24,268.76,268.53
625,4,why,277.64,277.49,277.22,276.88,276.81,276.46,276.35,276.14,275.54,274.47,274.34,273.99,273.92,273.63,273.57,273.15,272.85,272.55,272.51,272.05,270.82,270.42,270.2,269.95,269.47,269.24
626,4,his,278.06,277.91,277.64,277.3,277.23,276.88,276.77,276.56,275.96,274.89,274.76,274.41,274.34,274.05,273.99,273.57,273.27,272.97,272.93,272.47,271.24,270.84,270.62,270.37,269.89,269.66
627,4,mother,278.3,278.15,277.88,277.54,277.47,277.12,277.01,276.8,276.2,275.13,275,274.65,274.58,274.29,274.23,273.81,273.51,273.21,273.17,272.71,271.48,271.08,270.86,270.61,270.13,269.9
628,4,always,278.69,278.54,278.27,277.93,277.86,277.51,277.4,277.19,276.59,275.52,275.39,275.04,274.97,274.68,274.62,274.2,273.9,273.6,273.56,273.1,271.87,271.47,271.25,271,270.52,270.29
629,4,thought,279.15,279,278.73,278.39,278.32,277.97,277.86,277.65,277.05,275.98,275.85,275.5,275.43,275.14,275.08,274.66,274.36,274.06,274.02,273.56,272.33,271.93,271.71,271.46,270.98,270.75
630,4,something,279.48,279.33,279.06,278.72,278.65,278.3,278.19,277.98,277.38,276.31,276.18,275.83,275.76,275.47,275.41,274.99,274.69,274.39,274.35,273.89,272.66,272.26,272.04,271.79,271.31,271.08
631,4,had,279.93,279.78,279.51,279.17,279.1,278.75,278.64,278.43,277.83,276.76,276.63,276.28,276.21,275.92,275.86,275.44,275.14,274.84,274.8,274.34,273.11,272.71,272.49,272.24,271.76,271.53
632,4,happened,280.1,279.95,279.68,279.34,279.27,278.92,278.81,278.6,278,276.93,276.8,276.45,276.38,276.09,276.03,275.61,275.31,275.01,274.97,274.51,273.28,272.88,272.66,272.41,271.93,271.7
633,4,to,280.47,280.32,280.05,279.71,279.64,279.29,279.18,278.97,278.37,277.3,277.17,276.82,276.75,276.46,276.4,275.98,275.68,275.38,275.34,274.88,273.65,273.25,273.03,272.78,272.3,272.07
634,4,him,280.55,280.4,280.13,279.79,279.72,279.37,279.26,279.05,278.45,277.38,277.25,276.9,276.83,276.54,276.48,276.06,275.76,275.46,275.42,274.96,273.73,273.33,273.11,272.86,272.38,272.15
635,4,when,281.33,281.18,280.91,280.57,280.5,280.15,280.04,279.83,279.23,278.16,278.03,277.68,277.61,277.32,277.26,276.84,276.54,276.24,276.2,275.74,274.51,274.11,273.89,273.64,273.16,272.93
636,4,nothing,281.56,281.41,281.14,280.8,280.73,280.38,280.27,280.06,279.46,278.39,278.26,277.91,277.84,277.55,277.49,277.07,276.77,276.47,276.43,275.97,274.74,274.34,274.12,273.87,273.39,273.16
637,4,ever,282.07,281.92,281.65,281.31,281.24,280.89,280.78,280.57,279.97,278.9,278.77,278.42,278.35,278.06,278,277.58,277.28,276.98,276.94,276.48,275.25,274.85,274.63,274.38,273.9,273.67
638,4,did,282.36,282.21,281.94,281.6,281.53,281.18,281.07,280.86,280.26,279.19,279.06,278.71,278.64,278.35,278.29,277.87,277.57,277.27,277.23,276.77,275.54,275.14,274.92,274.67,274.19,273.96
639,4,that's,283.77,283.62,283.35,283.01,282.94,282.59,282.48,282.27,281.67,280.6,280.47,280.12,280.05,279.76,279.7,279.28,278.98,278.68,278.64,278.18,276.95,276.55,276.33,276.08,275.6,275.37
640,4,just,284.09,283.94,283.67,283.33,283.26,282.91,282.8,282.59,281.99,280.92,280.79,280.44,280.37,280.08,280.02,279.6,279.3,279,278.96,278.5,277.27,276.87,276.65,276.4,275.92,275.69
641,4,ribsy,284.44,284.29,284.02,283.68,283.61,283.26,283.15,282.94,282.34,281.27,281.14,280.79,280.72,280.43,280.37,279.95,279.65,279.35,279.31,278.85,277.62,277.22,277,276.75,276.27,276.04
642,4,ribsy,286.25,286.1,285.83,285.49,285.42,285.07,284.96,284.75,284.15,283.08,282.95,282.6,282.53,282.24,282.18,281.76,281.46,281.16,281.12,280.66,279.43,279.03,278.81,278.56,278.08,277.85
643,4,his,287.74,287.59,287.32,286.98,286.91,286.56,286.45,286.24,285.64,284.57,284.44,284.09,284.02,283.73,283.67,283.25,282.95,282.65,282.61,282.15,280.92,280.52,280.3,280.05,279.57,279.34
644,4,mother,287.95,287.8,287.53,287.19,287.12,286.77,286.66,286.45,285.85,284.78,284.65,284.3,284.23,283.94,283.88,283.46,283.16,282.86,282.82,282.36,281.13,280.73,280.51,280.26,279.78,279.55
645,4,was,288.27,288.12,287.85,287.51,287.44,287.09,286.98,286.77,286.17,285.1,284.97,284.62,284.55,284.26,284.2,283.78,283.48,283.18,283.14,282.68,281.45,281.05,280.83,280.58,280.1,279.87
646,4,exasperated,288.47,288.32,288.05,287.71,287.64,287.29,287.18,286.97,286.37,285.3,285.17,284.82,284.75,284.46,284.4,283.98,283.68,283.38,283.34,282.88,281.65,281.25,281.03,280.78,280.3,280.07
647,4,henry,290.23,290.08,289.81,289.47,289.4,289.05,288.94,288.73,288.13,287.06,286.93,286.58,286.51,286.22,286.16,285.74,285.44,285.14,285.1,284.64,283.41,283.01,282.79,282.54,282.06,281.83
648,4,will,291.34,291.19,290.92,290.58,290.51,290.16,290.05,289.84,289.24,288.17,288.04,287.69,287.62,287.33,287.27,286.85,286.55,286.25,286.21,285.75,284.52,284.12,283.9,283.65,283.17,282.94
649,4,you,291.5,291.35,291.08,290.74,290.67,290.32,290.21,290,289.4,288.33,288.2,287.85,287.78,287.49,287.43,287.01,286.71,286.41,286.37,285.91,284.68,284.28,284.06,283.81,283.33,283.1
650,4,please,291.74,291.59,291.32,290.98,290.91,290.56,290.45,290.24,289.64,288.57,288.44,288.09,288.02,287.73,287.67,287.25,286.95,286.65,286.61,286.15,284.92,284.52,284.3,284.05,283.57,283.34
651,4,tell,292.31,292.16,291.89,291.55,291.48,291.13,291.02,290.81,290.21,289.14,289.01,288.66,288.59,288.3,288.24,287.82,287.52,287.22,287.18,286.72,285.49,285.09,284.87,284.62,284.14,283.91
652,4,me,292.59,292.44,292.17,291.83,291.76,291.41,291.3,291.09,290.49,289.42,289.29,288.94,288.87,288.58,288.52,288.1,287.8,287.5,287.46,287,285.77,285.37,285.15,284.9,284.42,284.19
653,4,what,293.08,292.93,292.66,292.32,292.25,291.9,291.79,291.58,290.98,289.91,289.78,289.43,289.36,289.07,289.01,288.59,288.29,287.99,287.95,287.49,286.26,285.86,285.64,285.39,284.91,284.68
654,4,is,293.48,293.33,293.06,292.72,292.65,292.3,292.19,291.98,291.38,290.31,290.18,289.83,289.76,289.47,289.41,288.99,288.69,288.39,288.35,287.89,286.66,286.26,286.04,285.79,285.31,285.08
655,4,going,293.67,293.52,293.25,292.91,292.84,292.49,292.38,292.17,291.57,290.5,290.37,290.02,289.95,289.66,289.6,289.18,288.88,288.58,288.54,288.08,286.85,286.45,286.23,285.98,285.5,285.27
656,4,on,294.04,293.89,293.62,293.28,293.21,292.86,292.75,292.54,291.94,290.87,290.74,290.39,290.32,290.03,289.97,289.55,289.25,288.95,288.91,288.45,287.22,286.82,286.6,286.35,285.87,285.64
657,5,i'm,298.13,297.98,297.71,297.37,297.3,296.95,296.84,296.63,296.03,294.96,294.83,294.48,294.41,294.12,294.06,293.64,293.34,293.04,293,292.54,291.31,290.91,290.69,290.44,289.96,289.73
658,5,trying,298.4,298.25,297.98,297.64,297.57,297.22,297.11,296.9,296.3,295.23,295.1,294.75,294.68,294.39,294.33,293.91,293.61,293.31,293.27,292.81,291.58,291.18,290.96,290.71,290.23,290
659,5,to,299.07,298.92,298.65,298.31,298.24,297.89,297.78,297.57,296.97,295.9,295.77,295.42,295.35,295.06,295,294.58,294.28,293.98,293.94,293.48,292.25,291.85,291.63,291.38,290.9,290.67
660,5,said,300.07,299.92,299.65,299.31,299.24,298.89,298.78,298.57,297.97,296.9,296.77,296.42,296.35,296.06,296,295.58,295.28,294.98,294.94,294.48,293.25,292.85,292.63,292.38,291.9,291.67
661,5,henry,300.36,300.21,299.94,299.6,299.53,299.18,299.07,298.86,298.26,297.19,297.06,296.71,296.64,296.35,296.29,295.87,295.57,295.27,295.23,294.77,293.54,293.14,292.92,292.67,292.19,291.96
662,5,ribsy,301.54,301.39,301.12,300.78,300.71,300.36,300.25,300.04,299.44,298.37,298.24,297.89,297.82,297.53,297.47,297.05,296.75,296.45,296.41,295.95,294.72,294.32,294.1,293.85,293.37,293.14
663,5,howled,302.24,302.09,301.82,301.48,301.41,301.06,300.95,300.74,300.14,299.07,298.94,298.59,298.52,298.23,298.17,297.75,297.45,297.15,297.11,296.65,295.42,295.02,294.8,294.55,294.07,293.84
664,5,louder,302.83,302.68,302.41,302.07,302,301.65,301.54,301.33,300.73,299.66,299.53,299.18,299.11,298.82,298.76,298.34,298.04,297.74,297.7,297.24,296.01,295.61,295.39,295.14,294.66,294.43
665,5,people,304.46,304.31,304.04,303.7,303.63,303.28,303.17,302.96,302.36,301.29,301.16,300.81,300.74,300.45,300.39,299.97,299.67,299.37,299.33,298.87,297.64,297.24,297.02,296.77,296.29,296.06
666,5,were,304.83,304.68,304.41,304.07,304,303.65,303.54,303.33,302.73,301.66,301.53,301.18,301.11,300.82,300.76,300.34,300.04,299.74,299.7,299.24,298.01,297.61,297.39,297.14,296.66,296.43
667,5,gathering,305.02,304.87,304.6,304.26,304.19,303.84,303.73,303.52,302.92,301.85,301.72,301.37,301.3,301.01,300.95,300.53,300.23,299.93,299.89,299.43,298.2,297.8,297.58,297.33,296.85,296.62
668,5,around,305.59,305.44,305.17,304.83,304.76,304.41,304.3,304.09,303.49,302.42,302.29,301.94,301.87,301.58,301.52,301.1,300.8,300.5,300.46,300,298.77,298.37,298.15,297.9,297.42,297.19
669,5,the,305.86,305.71,305.44,305.1,305.03,304.68,304.57,304.36,303.76,302.69,302.56,302.21,302.14,301.85,301.79,301.37,301.07,300.77,300.73,300.27,299.04,298.64,298.42,298.17,297.69,297.46
670,5,phone,305.93,305.78,305.51,305.17,305.1,304.75,304.64,304.43,303.83,302.76,302.63,302.28,302.21,301.92,301.86,301.44,301.14,300.84,300.8,300.34,299.11,298.71,298.49,298.24,297.76,297.53
671,5,booth,306.27,306.12,305.85,305.51,305.44,305.09,304.98,304.77,304.17,303.1,302.97,302.62,302.55,302.26,302.2,301.78,301.48,301.18,301.14,300.68,299.45,299.05,298.83,298.58,298.1,297.87
672,5,to,306.56,306.41,306.14,305.8,305.73,305.38,305.27,305.06,304.46,303.39,303.26,302.91,302.84,302.55,302.49,302.07,301.77,301.47,301.43,300.97,299.74,299.34,299.12,298.87,298.39,298.16
673,5,see,306.74,306.59,306.32,305.98,305.91,305.56,305.45,305.24,304.64,303.57,303.44,303.09,303.02,302.73,302.67,302.25,301.95,301.65,301.61,301.15,299.92,299.52,299.3,299.05,298.57,298.34
